jointforce_id,session_trial,time,elbow_force_x,elbow_force_y,elbow_force_z,shoulder_upper_arm_force_x,shoulder_upper_arm_force_y,shoulder_upper_arm_force_z,shoulder_thorax_force_x,shoulder_thorax_force_y,shoulder_thorax_force_z,wrist_force_x,wrist_force_y,wrist_force_z,glove_elbow_force_x,glove_elbow_force_y,glove_elbow_force_z,glove_shoulder_glove_upper_arm_force_x,glove_shoulder_glove_upper_arm_force_y,glove_shoulder_glove_upper_arm_force_z,glove_shoulder_thorax_force_x,glove_shoulder_thorax_force_y,glove_shoulder_thorax_force_z,glove_wrist_force_x,glove_wrist_force_y,glove_wrist_force_z
2481246,498_1,0.0,-96.57,122.49,68.16,-126.79,-83.54,-221.34,68.31,258.78,16.29,-75.68,49.72,7.92,-84.93,318.22,68.95,198.88,-121.41,-147.86,-4.94,266.9,-71.42,-46.29,227.72,0.16
2481247,498_1,0.0028,-57.51,55.62,36.15,-59.32,-35.66,-131.19,41.12,139.79,25.83,-45.38,14.52,8.49,-45.22,177.98,33.83,97.41,-58.48,-76.27,-2.34,133.44,-31.51,-25.41,136.48,-2.52
2481248,498_1,0.0055,-27.95,6.55,12.3,-9.6,-0.58,-62.33,20.25,50.42,31.38,-22.2,-10.85,8.62,-15.25,70.07,7.22,20.75,-10.13,-23.51,-0.27,33.22,-0.07,-9.61,65.33,-4.18
2481249,498_1,0.0083,-7.82,-25.36,-3.58,23.39,22.11,-14.59,5.98,-10.23,33.51,-6.09,-26.58,8.32,4.91,-5.34,-11.0,-31.3,23.81,10.18,1.31,-33.73,23.32,0.99,14.31,-4.86
2481250,498_1,0.0111,3.85,-42.48,-12.43,42.32,33.99,14.14,-1.97,-45.8,33.19,3.67,-33.84,7.65,16.11,-51.06,-21.71,-61.23,44.89,26.38,2.49,-70.54,39.83,6.72,-18.4,-4.69
2481251,498_1,0.0139,8.64,-48.2,-15.71,50.67,37.44,27.23,-4.41,-61.51,31.56,8.18,-34.41,6.7,19.83,-71.96,-26.34,-73.08,55.53,28.05,3.34,-82.57,50.93,8.32,-35.86,-3.91
2481252,498_1,0.0167,8.4,-46.19,-15.07,51.99,35.12,28.59,-2.55,-63.07,29.67,8.78,-30.33,5.54,17.92,-74.01,-26.53,-71.6,58.5,19.05,3.92,-76.35,58.06,6.74,-41.79,-2.77
2481253,498_1,0.0194,4.95,-39.83,-12.17,49.29,29.68,22.11,2.13,-55.82,28.39,6.76,-23.53,4.2,12.3,-63.45,-23.89,-61.65,56.47,3.59,4.27,-58.73,62.37,3.07,-39.96,-1.54
2481254,498_1,0.0222,-0.05,-31.81,-8.48,44.79,23.43,11.25,8.02,-44.15,28.29,3.32,-15.67,2.71,4.76,-46.11,-19.77,-47.66,51.64,-14.24,4.47,-36.03,64.58,-1.63,-33.81,-0.45
2481255,498_1,0.025,-5.29,-23.97,-5.15,39.84,18.2,-1.17,13.6,-31.31,29.64,-0.55,-8.02,1.09,-3.24,-26.91,-15.2,-33.26,45.6,-30.89,4.71,-13.54,64.99,-6.43,-26.16,0.37
2481256,498_1,0.0278,-9.79,-17.34,-2.96,35.08,15.19,-13.07,17.59,-19.44,32.36,-4.04,-1.47,-0.6,-10.6,-9.6,-10.79,-21.19,39.22,-43.65,5.27,4.85,63.54,-10.62,-19.08,0.85
2481257,498_1,0.0306,-12.93,-12.31,-2.27,30.69,14.98,-23.03,19.14,-9.75,36.14,-6.53,3.42,-2.22,-16.65,3.33,-6.82,-13.15,32.81,-50.88,6.53,16.82,60.06,-13.74,-13.82,1.03
2481258,498_1,0.0333,-14.4,-8.85,-3.07,26.6,17.52,-30.21,17.9,-2.73,40.45,-7.62,6.34,-3.6,-21.04,10.67,-3.27,-9.89,26.3,-51.99,8.83,21.51,54.4,-15.57,-10.93,1.03
2481259,498_1,0.0361,-14.15,-6.73,-5.06,22.68,22.26,-34.3,14.01,1.6,44.65,-7.11,7.25,-4.53,-23.69,12.27,-0.05,-11.32,19.51,-47.34,12.35,19.28,46.62,-16.12,-10.32,0.96
2481260,498_1,0.0389,-12.38,-5.62,-7.74,18.89,28.33,-35.37,8.06,3.53,48.14,-5.09,6.32,-4.88,-24.67,8.8,2.98,-16.71,12.36,-38.04,17.06,11.4,37.09,-15.53,-11.51,0.98
2481261,498_1,0.0417,-9.5,-5.18,-10.57,15.26,34.73,-33.81,0.9,3.51,50.41,-1.89,3.98,-4.6,-24.16,1.47,5.86,-24.87,5.03,-25.63,22.61,-0.34,26.47,-14.06,-13.79,1.18
2481262,498_1,0.0444,-6.05,-5.11,-13.1,11.93,40.52,-30.29,-6.49,2.09,51.22,1.89,0.87,-3.82,-22.42,-8.26,8.52,-34.4,-2.03,-11.81,28.4,-14.0,15.67,-12.01,-16.41,1.59
2481263,498_1,0.0472,-2.64,-5.11,-15.01,9.08,45.02,-25.6,-13.22,-0.15,50.6,5.53,-2.25,-2.81,-19.76,-18.91,10.79,-43.88,-8.18,1.76,33.67,-27.7,5.68,-9.69,-18.73,2.17
2481264,498_1,0.05,0.12,-4.97,-16.2,6.88,47.85,-20.58,-18.57,-2.7,48.82,8.27,-4.59,-1.91,-16.59,-29.1,12.46,-52.03,-12.76,13.64,37.67,-39.84,-2.53,-7.38,-20.27,2.84
2481265,498_1,0.0528,1.79,-4.52,-16.74,5.43,48.96,-15.98,-22.14,-5.13,46.34,9.53,-5.58,-1.46,-13.35,-37.66,13.33,-57.77,-15.22,22.74,39.73,-49.13,-8.21,-5.33,-20.75,3.48
2481266,498_1,0.0556,2.14,-3.69,-16.82,4.74,48.54,-12.33,-23.82,-7.13,43.6,9.05,-4.92,-1.66,-10.52,-43.64,13.27,-60.36,-15.26,28.33,39.44,-54.69,-10.92,-3.73,-20.01,3.94
2481267,498_1,0.0583,1.24,-2.54,-16.68,4.72,46.95,-9.86,-23.8,-8.54,40.97,6.94,-2.76,-2.55,-8.51,-46.34,12.22,-59.34,-12.85,30.08,36.59,-56.03,-10.54,-2.68,-18.01,4.12
2481268,498_1,0.0611,-0.6,-1.26,-16.51,5.19,44.57,-8.55,-22.47,-9.34,38.64,3.67,0.38,-3.96,-7.66,-45.33,10.22,-54.62,-8.2,28.05,31.27,-53.1,-7.25,-2.25,-14.74,3.93
2481269,498_1,0.0639,-2.91,-0.11,-16.39,5.92,41.74,-8.14,-20.3,-9.62,36.63,-0.04,3.72,-5.53,-8.11,-40.49,7.35,-46.47,-1.7,22.66,23.75,-46.23,-1.47,-2.45,-10.25,3.34
2481270,498_1,0.0667,-5.14,0.63,-16.32,6.71,38.77,-8.3,-17.76,-9.51,34.87,-3.45,6.44,-6.86,-9.85,-32.09,3.75,-35.53,6.19,14.5,14.53,-36.17,6.29,-3.23,-4.7,2.38
2481271,498_1,0.0694,-6.88,0.75,-16.2,7.43,35.94,-8.73,-15.24,-9.2,33.35,-5.93,7.87,-7.6,-12.71,-20.86,-0.44,-22.76,15.0,4.31,4.31,-23.92,15.52,-4.5,1.57,1.1
2481272,498_1,0.0722,-7.89,0.19,-15.98,8.02,33.55,-9.31,-13.01,-8.84,32.2,-7.14,7.68,-7.56,-16.4,-7.92,-4.99,-9.42,24.26,-7.22,-6.02,-10.67,25.83,-6.14,8.01,-0.39
2481273,498_1,0.075,-8.17,-0.91,-15.63,8.54,31.98,-10.09,-11.24,-8.57,31.72,-7.05,6.01,-6.78,-20.59,5.27,-9.65,3.08,33.52,-19.54,-15.43,2.36,36.91,-8.0,13.85,-1.94
2481274,498_1,0.0778,-7.91,-2.29,-15.22,9.13,31.59,-11.28,-10.0,-8.48,32.36,-5.93,3.32,-5.5,-24.94,17.13,-14.1,13.39,42.3,-32.18,-22.89,14.13,48.53,-9.88,18.25,-3.4
2481275,498_1,0.0806,-7.44,-3.62,-14.89,9.98,32.67,-13.14,-9.25,-8.66,34.53,-4.22,0.3,-4.07,-29.14,26.25,-18.0,20.45,50.12,-44.76,-27.52,23.8,60.36,-11.6,20.47,-4.63
2481276,498_1,0.0833,-7.07,-4.59,-14.72,11.29,35.33,-15.79,-8.86,-9.2,38.43,-2.36,-2.36,-2.82,-32.94,31.7,-21.02,23.68,56.51,-56.86,-28.83,30.92,71.95,-13.0,20.09,-5.5
2481277,498_1,0.0861,-7.01,-5.07,-14.74,13.24,39.35,-19.16,-8.64,-10.21,43.89,-0.72,-4.22,-1.98,-36.15,33.2,-22.92,23.12,61.09,-67.97,-26.81,35.36,82.68,-13.95,17.17,-5.96
2481278,498_1,0.0889,-7.3,-5.11,-14.86,15.94,44.16,-22.83,-8.36,-11.82,50.27,0.52,-5.15,-1.58,-38.62,31.19,-23.55,19.42,63.64,-77.44,-22.04,37.29,91.76,-14.42,12.29,-6.0
2481279,498_1,0.0917,-7.8,-4.91,-14.86,19.35,48.92,-26.13,-7.83,-14.14,56.52,1.34,-5.33,-1.49,-40.25,26.69,-22.96,13.7,64.15,-84.56,-15.56,37.1,98.42,-14.46,6.4,-5.65
2481280,498_1,0.0944,-8.24,-4.74,-14.45,23.22,52.61,-28.26,-6.92,-17.12,61.32,1.85,-5.16,-1.44,-40.95,21.02,-21.32,7.29,62.85,-88.67,-8.68,35.26,102.01,-14.18,0.61,-5.01
2481281,498_1,0.0972,-8.34,-4.82,-13.38,27.08,54.23,-28.45,-5.63,-20.57,63.36,2.21,-5.04,-1.17,-40.64,15.46,-18.94,1.41,60.15,-89.26,-2.69,32.22,102.12,-13.65,-4.15,-4.19
2481282,498_1,0.1,-7.85,-5.19,-11.49,30.28,53.06,-26.19,-4.1,-24.02,61.65,2.55,-5.27,-0.5,-39.22,10.95,-16.2,-3.02,56.54,-86.09,1.37,28.31,98.69,-12.95,-7.32,-3.29
2481283,498_1,0.1028,-6.67,-5.73,-8.78,32.03,48.7,-21.4,-2.61,-26.83,55.7,2.97,-5.88,0.61,-36.62,7.85,-13.46,-5.63,52.45,-79.25,3.02,23.71,91.94,-12.09,-8.84,-2.41
2481284,498_1,0.1056,-4.84,-6.12,-5.41,31.62,41.27,-14.45,-1.45,-28.27,45.65,3.48,-6.64,2.04,-32.83,6.01,-10.99,-6.62,48.15,-69.17,2.37,18.46,82.38,-11.03,-9.12,-1.59
2481285,498_1,0.1083,-2.55,-5.94,-1.69,28.53,31.28,-6.12,-0.88,-27.64,32.3,4.08,-7.1,3.55,-27.95,4.83,-8.91,-6.62,43.68,-56.59,0.12,12.55,70.67,-9.77,-8.8,-0.86
2481286,498_1,0.1111,-0.06,-4.79,2.02,22.59,19.6,2.49,-1.03,-24.46,16.96,4.71,-6.67,4.8,-22.25,3.56,-7.19,-6.49,38.89,-42.52,-2.64,6.02,57.61,-8.32,-8.56,-0.18
2481287,498_1,0.1139,2.25,-2.36,5.33,14.06,7.31,10.16,-1.87,-18.56,1.26,5.29,-4.81,5.48,-16.14,1.58,-5.7,-7.05,33.51,-28.16,-4.73,-0.89,44.02,-6.73,-8.82,0.48
2481288,498_1,0.1167,4.01,1.46,7.92,3.57,-4.45,15.72,-3.19,-10.11,-13.08,5.7,-1.13,5.33,-10.15,-1.43,-4.24,-8.84,27.35,-14.75,-5.15,-7.78,30.78,-5.08,-9.69,1.15
2481289,498_1,0.1194,4.82,6.53,9.56,-7.9,-14.57,18.22,-4.64,0.34,-24.42,5.74,4.42,4.25,-4.77,-5.35,-2.67,-11.95,20.38,-3.41,-3.35,-14.05,18.69,-3.48,-10.91,1.82
2481290,498_1,0.1222,4.31,12.4,10.11,-19.14,-22.07,17.04,-5.85,11.89,-31.41,5.14,11.48,2.31,-0.43,-9.74,-0.96,-16.06,12.85,4.98,0.64,-19.06,8.49,-1.96,-12.01,2.44
2481291,498_1,0.125,2.2,18.36,9.56,-28.79,-26.13,12.03,-6.44,23.36,-33.06,3.64,19.21,-0.24,2.66,-13.96,0.82,-20.57,5.3,10.0,6.29,-22.35,0.73,-0.53,-12.48,2.95
2481292,498_1,0.1278,-1.67,23.44,7.95,-35.54,-26.18,3.5,-6.13,33.36,-28.89,0.97,26.4,-3.0,4.48,-17.39,2.46,-24.78,-1.56,11.7,12.69,-23.74,-4.28,0.88,-11.97,3.25
2481293,498_1,0.1306,-7.25,26.58,5.45,-38.18,-21.89,-7.77,-4.8,40.45,-18.93,-2.97,31.62,-5.44,5.22,-19.59,3.76,-28.17,-7.0,10.55,18.8,-23.41,-6.48,2.33,-10.38,3.3
2481294,498_1,0.1333,-14.23,26.82,2.25,-35.91,-13.33,-20.59,-2.47,43.33,-3.84,-8.09,33.51,-7.1,5.13,-20.38,4.53,-30.4,-10.37,7.35,23.72,-21.87,-6.06,3.83,-7.85,3.09
2481295,498_1,0.1361,-22.05,23.52,-1.42,-28.43,-0.94,-33.55,0.61,41.14,15.19,-14.02,31.07,-7.57,4.48,-19.81,4.66,-31.45,-11.25,2.98,26.79,-19.75,-3.36,5.29,-4.7,2.65
2481296,498_1,0.1389,-29.92,16.55,-5.29,-16.16,14.39,-45.17,4.06,33.63,36.45,-20.15,23.97,-6.69,3.42,-18.08,4.22,-31.45,-9.54,-1.8,27.71,-17.66,1.17,6.5,-1.29,2.09
2481297,498_1,0.1417,-36.95,6.43,-9.11,-0.27,31.35,-54.19,7.37,21.37,57.93,-25.67,12.68,-4.51,1.95,-15.45,3.34,-30.58,-5.42,-6.44,26.49,-15.96,7.07,7.13,2.1,1.51
2481298,498_1,0.1444,-42.29,-5.7,-12.58,17.48,48.29,-59.73,10.1,5.74,77.5,-29.79,-1.49,-1.35,0.0,-12.14,2.24,-28.96,0.67,-10.69,23.39,-14.72,13.87,6.87,5.33,1.02
2481299,498_1,0.1472,-45.27,-18.27,-15.44,34.95,63.44,-61.45,11.91,-11.28,93.2,-31.83,-16.61,2.31,-2.56,-8.33,1.13,-26.6,8.12,-14.5,18.73,-13.72,21.12,5.44,8.39,0.67
2481300,498_1,0.15,-45.51,-29.52,-17.39,50.0,75.08,-59.59,12.71,-27.4,103.51,-31.43,-30.45,5.9,-5.72,-4.21,0.14,-23.4,16.25,-17.91,12.91,-12.63,28.39,2.79,11.32,0.44
2481301,498_1,0.1528,-43.0,-37.85,-18.22,60.88,81.83,-54.84,12.66,-40.45,107.53,-28.56,-40.92,8.85,-9.35,0.04,-0.73,-19.29,24.44,-20.95,6.26,-11.11,35.25,-0.89,14.13,0.28
2481302,498_1,0.1556,-38.07,-42.06,-17.82,66.45,82.91,-48.16,12.05,-48.79,105.1,-23.59,-46.4,10.71,-13.1,4.14,-1.6,-14.25,32.24,-23.57,-0.98,-9.01,41.36,-5.15,16.73,0.07
2481303,498_1,0.1583,-31.35,-41.56,-16.24,66.37,78.28,-40.54,11.16,-51.58,96.76,-17.17,-46.06,11.16,-16.5,7.72,-2.69,-8.43,39.4,-25.62,-8.6,-6.41,46.49,-9.33,18.89,-0.28
2481304,498_1,0.1611,-23.66,-36.42,-13.75,60.98,68.75,-32.82,10.1,-48.88,83.73,-10.17,-39.96,10.07,-19.08,10.43,-4.21,-2.11,45.89,-26.96,-16.42,-3.61,50.57,-12.73,20.3,-0.86
2481305,498_1,0.1639,-15.92,-27.3,-10.81,51.2,55.89,-25.59,8.73,-41.53,67.71,-3.53,-29.0,7.5,-20.46,12.03,-6.3,4.27,51.8,-27.48,-24.24,-1.01,53.69,-14.75,20.67,-1.69
2481306,498_1,0.1667,-9.11,-15.32,-7.98,38.22,41.83,-19.22,6.62,-30.9,50.75,1.8,-14.68,3.68,-20.52,12.46,-8.93,10.27,57.28,-27.25,-31.8,1.02,56.09,-15.05,19.81,-2.71
2481307,498_1,0.1694,-4.15,-1.81,-5.83,23.31,28.87,-14.01,3.2,-18.48,34.95,4.96,1.17,-1.01,-19.48,11.91,-11.87,15.43,62.38,-26.5,-38.73,2.27,58.07,-13.67,17.77,-3.79
2481308,498_1,0.1722,-1.81,11.89,-4.79,7.55,19.15,-10.27,-2.06,-5.61,22.29,5.33,16.73,-6.06,-17.8,10.8,-14.72,19.38,67.0,-25.61,-44.54,2.7,59.88,-11.01,14.81,-4.76
2481309,498_1,0.175,-2.61,24.64,-5.05,-8.23,14.2,-8.36,-9.42,6.82,14.31,2.58,30.51,-10.94,-16.16,9.67,-16.98,21.81,70.86,-24.96,-48.68,2.41,61.68,-7.74,11.39,-5.42
2481310,498_1,0.1778,-6.69,35.62,-6.49,-23.46,14.66,-8.7,-18.76,18.4,11.87,-3.17,41.53,-15.1,-15.21,8.99,-18.22,22.44,73.59,-24.87,-50.63,1.5,63.44,-4.66,8.01,-5.62
2481311,498_1,0.1806,-25.1,-10.84,-9.88,14.48,48.12,-54.53,-1.82,-0.94,74.49,-6.07,-4.27,-1.53,-8.92,-5.03,-14.56,-16.29,52.96,-6.25,-18.02,-29.15,42.81,1.34,-4.87,-0.9
2481312,498_1,0.1833,-22.88,50.95,-10.97,-50.82,29.13,-16.95,-40.35,39.24,22.54,-20.77,54.42,-19.44,-16.86,9.42,-16.76,17.05,74.03,-26.29,-46.16,-2.36,65.87,-1.41,3.0,-4.36
2481313,498_1,0.1861,-32.84,55.52,-12.53,-62.28,39.44,-24.42,-50.09,48.88,32.83,-29.97,57.13,-18.96,-19.2,9.75,-14.26,10.39,71.11,-27.09,-39.3,-5.9,65.63,-1.56,1.53,-3.01
2481314,498_1,0.1889,-42.03,58.54,-12.6,-71.65,48.41,-33.09,-57.14,58.05,43.39,-37.17,58.41,-16.47,-21.66,9.04,-11.05,0.76,65.86,-27.18,-29.36,-11.04,63.73,-2.4,0.35,-1.36
2481315,498_1,0.1917,-48.85,60.41,-10.57,-78.31,53.52,-41.75,-60.13,66.37,51.72,-40.69,59.01,-11.99,-23.18,6.26,-7.55,-11.75,58.23,-25.99,-16.64,-18.0,59.71,-3.1,-1.17,0.41
2481316,498_1,0.1944,-51.97,61.39,-6.22,-81.56,52.95,-49.1,-58.16,73.17,55.73,-39.29,59.38,-5.74,-22.68,0.59,-4.1,-26.64,48.3,-23.26,-1.65,-26.55,53.35,-2.68,-3.75,2.18
2481317,498_1,0.1972,-50.65,61.42,0.22,-80.68,46.07,-54.01,-50.96,77.46,54.32,-32.48,59.47,1.84,-19.27,-8.24,-0.86,-42.83,36.25,-19.13,14.83,-35.9,44.72,-0.25,-7.97,3.88
2481318,498_1,0.2,-44.91,60.11,8.0,-75.12,33.62,-55.75,-39.03,78.16,47.61,-20.71,58.69,10.05,-12.53,-19.73,2.21,-58.64,22.49,-14.19,31.68,-44.69,34.27,4.75,-14.0,5.52
2481319,498_1,0.2028,-35.54,56.83,15.91,-64.56,17.76,-54.16,-23.64,74.24,37.05,-5.4,56.08,17.95,-2.67,-32.44,5.22,-71.96,7.76,-9.36,47.48,-51.15,22.88,12.32,-21.44,7.08
2481320,498_1,0.2056,-23.96,50.84,22.44,-49.08,1.57,-49.59,-6.62,64.95,25.09,11.35,50.53,24.47,9.42,-44.16,8.28,-80.44,-6.87,-5.74,60.5,-53.46,11.7,21.83,-29.14,8.54
2481321,498_1,0.2083,-11.86,41.53,26.12,-29.21,-11.51,-42.8,9.94,50.02,14.57,27.13,41.15,28.53,22.33,-52.21,11.38,-81.96,-19.98,-4.33,68.91,-50.09,2.14,32.04,-35.39,9.78
2481322,498_1,0.2111,-0.85,28.62,25.76,-5.9,-18.54,-34.73,24.07,29.75,8.08,39.72,27.57,29.26,34.27,-53.95,14.33,-74.99,-30.02,-5.88,71.11,-40.18,-4.43,41.27,-38.19,10.59
2481323,498_1,0.2139,8.02,12.33,20.81,19.51,-17.82,-26.23,34.33,5.08,7.2,47.64,10.19,26.17,43.47,-47.41,16.78,-59.07,-35.52,-10.75,66.06,-23.8,-6.82,47.71,-35.77,10.75
2481324,498_1,0.2167,14.43,-6.63,11.51,45.5,-9.35,-17.88,40.07,-22.5,12.08,50.4,-9.83,19.34,48.44,-31.9,18.39,-35.08,-35.48,-18.84,53.69,-2.05,-4.28,49.78,-27.09,10.07
2481325,498_1,0.2194,18.89,-27.06,-1.01,70.44,5.09,-9.92,41.59,-51.02,21.36,48.62,-30.69,9.49,48.3,-8.33,18.94,-5.28,-29.61,-29.64,35.13,23.02,3.35,46.46,-12.31,8.53
2481326,498_1,0.2222,22.52,-47.47,-14.88,92.75,22.26,-2.32,39.99,-78.24,32.47,43.8,-50.23,-2.04,42.88,20.72,18.51,26.83,-18.56,-42.29,12.7,48.7,15.54,37.55,7.08,6.39
2481327,498_1,0.225,26.67,-66.16,-27.79,110.93,38.22,5.0,36.84,-101.8,42.29,37.84,-66.27,-13.49,32.79,51.39,17.55,57.08,-3.87,-55.74,-10.37,72.04,31.1,23.78,28.47,4.26
2481328,498_1,0.2278,32.42,-81.43,-37.37,123.55,49.18,11.96,33.79,-119.34,48.0,32.53,-76.9,-22.91,19.23,79.2,16.92,81.26,12.22,-68.97,-30.37,90.39,48.36,6.7,48.57,3.09
2481329,498_1,0.2306,-0.07,-27.45,-0.33,20.96,25.94,-34.6,8.36,-7.57,46.22,10.67,-24.68,3.18,-15.51,-3.44,7.42,-33.92,-4.66,11.16,21.68,-28.42,-6.59,-17.06,6.64,5.92
2481330,498_1,0.2333,49.14,-95.53,-39.11,127.19,46.85,22.06,32.53,-128.12,41.46,27.28,-77.08,-29.08,-12.02,110.38,21.32,99.03,38.19,-91.92,-47.92,105.96,80.59,-28.49,72.62,8.44
2481331,498_1,0.2361,57.71,-91.97,-29.48,116.35,33.21,22.46,34.93,-116.33,30.52,26.31,-65.95,-23.89,-26.52,109.27,28.67,90.34,43.55,-101.33,-41.38,103.24,92.46,-41.87,72.7,17.2
2481332,498_1,0.2389,63.17,-80.5,-13.15,96.64,13.91,17.25,38.74,-92.91,17.98,23.95,-48.16,-13.07,-38.47,97.22,40.45,71.59,41.94,-109.76,-24.39,95.71,100.2,-49.71,64.57,30.83
2481333,498_1,0.2417,62.32,-61.29,8.64,68.68,-7.51,4.53,43.03,-58.42,7.7,17.43,-25.24,2.6,-46.82,76.85,56.58,46.24,33.08,-117.68,1.07,86.19,103.33,-50.62,49.94,49.04
2481334,498_1,0.2444,52.01,-35.33,34.1,34.06,-27.18,-17.0,46.92,-14.63,3.57,3.92,0.6,21.83,-50.73,52.28,76.08,18.98,17.67,-125.19,31.54,77.77,101.66,-43.91,31.76,70.6
2481335,498_1,0.2472,29.83,-4.54,61.12,-4.53,-41.58,-47.63,49.86,35.45,8.65,-18.81,26.59,43.04,-49.7,28.35,96.99,-5.07,-2.71,-131.77,62.42,73.11,95.07,-29.66,13.79,93.25
2481336,498_1,0.25,-5.24,28.13,87.47,-43.45,-48.3,-86.17,51.79,87.59,24.38,-51.67,49.52,64.45,-43.61,9.73,116.43,-21.28,-25.7,-136.16,88.65,73.78,83.58,-8.86,-0.07,113.86
2481337,498_1,0.2528,-52.31,58.87,111.01,-78.3,-46.39,-129.82,53.23,136.64,50.16,-93.78,65.98,84.24,-33.02,0.02,130.95,-26.45,-48.24,-136.56,105.48,79.78,67.51,16.49,-6.44,128.78
2481338,498_1,0.2556,-108.27,83.25,129.76,-104.56,-36.57,-174.25,55.07,177.03,83.15,-142.13,72.64,100.62,-19.3,0.99,137.0,-19.56,-66.89,-131.08,109.32,89.34,47.83,43.41,-3.2,134.43
2481339,498_1,0.2583,-167.93,96.82,141.95,-118.21,-21.08,-213.91,58.26,203.5,118.57,-191.74,66.71,111.83,-4.66,12.2,131.67,-2.13,-78.12,-118.35,98.46,99.17,26.38,68.14,9.98,127.99
2481340,498_1,0.2611,-224.48,95.81,146.17,-116.64,-3.18,-242.76,63.33,211.95,150.3,-236.19,46.44,116.3,8.06,31.05,113.41,21.95,-78.93,-98.14,73.58,105.2,5.88,86.63,31.41,108.19
2481341,498_1,0.2639,-270.56,78.04,141.38,-99.43,13.48,-255.09,69.99,200.3,171.9,-268.64,11.74,112.76,15.98,53.36,82.67,47.17,-67.49,-71.65,37.75,103.5,-10.47,95.27,57.6,75.92
2481342,498_1,0.2667,-299.49,43.71,127.07,-68.76,25.74,-246.65,76.76,169.07,177.91,-283.17,-35.47,100.45,16.87,74.33,42.12,67.7,-43.82,-41.45,-4.0,91.44,-19.71,91.85,83.91,34.31
2481343,498_1,0.2694,-306.73,-4.23,103.37,-29.25,31.77,-215.58,81.09,121.49,165.11,-276.18,-91.18,79.35,9.85,89.75,-3.7,78.68,-9.99,-11.01,-45.7,68.42,-19.89,76.16,105.64,-11.66
2481344,498_1,0.2722,-291.06,-60.25,71.11,12.89,31.63,-163.11,79.84,62.96,133.57,-247.51,-149.66,50.31,-4.3,96.92,-49.17,77.41,30.08,16.07,-81.59,36.13,-10.66,50.28,119.07,-56.12
2481345,498_1,0.275,-255.12,-117.1,31.83,51.27,27.39,-93.66,70.08,-0.08,86.94,-200.89,-204.4,14.96,-23.34,95.18,-88.77,63.75,71.44,36.78,-107.26,-1.84,6.66,18.14,122.29,-93.53
2481346,498_1,0.2778,-205.11,-167.07,-12.4,80.88,22.66,-14.1,49.98,-61.48,31.86,-143.47,-249.15,-24.44,-44.17,85.75,-118.14,39.86,109.11,49.28,-120.27,-40.94,29.46,-15.44,115.42,-119.76
2481347,498_1,0.2805,-149.57,-203.33,-59.24,99.1,21.71,67.4,19.39,-116.51,-23.33,-84.47,-278.92,-65.38,-63.74,71.12,-134.8,9.34,139.04,53.07,-120.33,-76.75,54.5,-45.8,100.3,-132.77
2481348,498_1,0.2833,-97.62,-220.91,-106.33,105.93,28.48,142.8,-20.08,-162.4,-70.31,-33.29,-290.5,-105.5,-79.72,54.23,-138.43,-23.81,158.78,48.95,-108.92,-105.93,78.67,-69.52,79.9,-132.79
2481349,498_1,0.2861,-56.96,-216.96,-151.5,103.32,45.74,205.37,-65.5,-198.12,-102.22,2.53,-282.46,-142.86,-90.99,37.8,-130.65,-56.03,167.7,38.7,-88.79,-126.69,99.52,-84.92,57.5,-122.01
2481350,498_1,0.2889,-32.29,-190.6,-192.79,94.09,74.63,250.17,-113.27,-223.67,-114.49,18.85,-254.63,-175.93,-97.67,23.95,-114.57,-84.56,166.9,24.61,-63.44,-138.8,115.58,-92.22,36.19,-104.03
2481351,498_1,0.2917,-24.37,-142.34,-228.17,80.72,114.45,274.1,-159.68,-239.09,-105.16,15.75,-207.58,-203.38,-100.8,14.2,-94.16,-107.55,158.9,9.04,-36.68,-143.18,126.47,-93.14,18.49,-83.13
2481352,498_1,0.2944,-29.93,-73.72,-255.26,64.6,162.66,275.54,-201.28,-243.78,-74.73,-2.53,-142.38,-223.59,-101.86,9.6,-73.61,-123.78,147.11,-5.98,-12.3,-141.37,132.8,-90.26,6.3,-63.67
2481353,498_1,0.2972,-42.38,12.63,-271.05,45.84,214.89,254.11,-234.81,-236.18,-25.94,-28.48,-60.79,-234.32,-102.28,10.95,-56.74,-132.47,135.32,-19.05,6.2,-135.02,135.92,-86.28,0.9,-49.45
2481354,498_1,0.3,-53.14,112.48,-271.99,23.63,265.09,210.62,-257.19,-214.16,36.33,-52.73,34.0,-232.61,-102.91,18.87,-46.49,-133.1,127.0,-29.41,16.01,-125.46,137.5,-83.28,3.12,-43.23
2481355,498_1,0.3028,-53.43,219.29,-254.6,-2.91,305.86,147.57,-265.48,-175.92,105.18,-65.96,136.49,-215.36,-103.82,33.72,-44.5,-125.5,124.73,-36.94,15.37,-113.59,139.09,-82.2,13.31,-46.38
2481356,498_1,0.3056,-36.16,323.7,-216.59,-33.74,329.37,69.69,-257.19,-121.4,172.01,-60.78,238.35,-180.43,-104.17,55.32,-50.89,-109.92,129.61,-41.96,3.93,-99.93,141.68,-82.59,31.31,-58.57
2481357,498_1,0.3083,2.25,413.99,-158.3,-66.99,328.84,-15.69,-230.85,-53.6,227.4,-33.42,328.74,-128.01,-102.3,82.69,-64.13,-87.29,140.91,-44.98,-17.01,-84.69,145.33,-82.61,56.27,-77.75
2481358,498_1,0.3111,60.73,477.72,-83.74,-98.56,300.44,-99.18,-186.83,20.78,262.85,15.07,395.96,-61.81,-96.07,113.72,-81.19,-59.32,156.04,-46.47,-44.42,-68.09,149.05,-79.41,86.43,-100.29
2481359,498_1,0.3139,133.35,504.47,-0.65,-122.69,245.01,-170.83,-127.72,91.98,272.88,78.83,430.05,10.88,-83.23,145.07,-97.96,-28.61,170.81,-46.75,-73.8,-50.55,150.92,-69.74,118.92,-121.38
2481360,498_1,0.3167,210.45,488.8,80.79,-133.4,168.52,-222.5,-58.42,149.34,256.82,148.34,425.62,80.4,-62.01,172.27,-109.87,1.45,180.12,-45.82,-99.67,-32.89,148.44,-50.79,149.74,-135.79
2481361,498_1,0.3194,280.86,432.19,150.34,-126.5,81.09,-249.9,14.64,184.27,219.17,212.68,383.62,137.18,-31.71,190.17,-112.73,26.9,178.99,-43.48,-116.38,-16.53,139.23,-21.08,173.96,-138.73
2481362,498_1,0.3222,334.54,342.99,200.21,-101.39,-5.46,-253.45,84.46,192.81,168.28,262.16,311.33,174.15,6.74,193.73,-103.66,43.68,163.8,-39.37,-119.15,-3.4,121.74,18.76,186.4,-126.97
2481363,498_1,0.325,364.71,234.58,226.63,-61.57,-80.42,-237.59,144.61,176.69,113.86,290.42,220.5,188.42,50.44,179.21,-81.88,48.38,133.38,-33.31,-105.16,4.4,96.08,65.59,182.68,-99.63
2481364,498_1,0.3278,368.87,122.29,230.09,-13.95,-136.19,-209.02,190.05,142.42,64.47,295.34,124.58,181.46,94.64,145.41,-49.08,39.16,89.78,-25.52,-74.48,5.17,64.34,113.94,160.47,-58.77
2481365,498_1,0.3305,-43.41,-27.17,29.85,55.02,33.15,-96.69,42.48,-7.94,107.29,-26.33,-17.96,12.31,-22.07,6.54,5.12,10.09,32.4,-40.39,-5.62,17.19,50.23,-9.78,0.76,2.15
2481366,498_1,0.3333,308.12,-60.81,185.12,71.3,-179.13,-140.29,225.73,56.02,0.9,244.84,-36.21,124.74,161.09,33.12,32.03,-15.2,-14.08,-9.1,20.29,-13.93,-0.34,187.8,67.86,42.52
2481367,498_1,0.3361,253.74,-115.23,148.17,95.36,-168.88,-109.61,215.37,20.26,-10.77,199.59,-86.73,88.03,173.12,-30.2,69.24,-50.14,-59.45,-4.18,69.9,-28.43,-23.49,201.48,9.62,89.29
2481368,498_1,0.3389,191.89,-142.14,108.7,102.82,-142.67,-84.32,188.81,-4.16,-11.07,148.8,-114.69,53.33,167.74,-85.22,97.88,-80.2,-91.96,-4.17,110.38,-39.78,-35.76,195.96,-45.0,125.26
2481369,498_1,0.3417,128.7,-144.84,70.62,94.71,-105.6,-64.46,149.94,-16.58,-3.09,97.72,-122.54,24.19,146.08,-123.28,115.52,-98.04,-108.7,-10.38,135.82,-42.71,-36.38,172.67,-87.77,146.89
2481370,498_1,0.3444,69.5,-129.43,36.53,74.8,-63.05,-48.99,103.66,-19.06,9.69,50.69,-115.0,2.33,111.86,-139.1,121.99,-98.82,-110.12,-23.05,143.58,-33.53,-26.93,135.96,-113.18,153.35
2481371,498_1,0.3472,18.47,-103.17,7.91,48.45,-20.17,-36.39,55.38,-15.24,23.85,11.01,-97.71,-12.09,70.38,-131.85,118.99,-81.44,-99.41,-41.11,134.51,-11.27,-10.7,91.93,-119.48,146.32
2481372,498_1,0.35,-21.43,-73.06,-14.48,21.32,18.46,-25.22,10.33,-9.16,36.43,-19.07,-76.09,-19.91,27.39,-104.92,109.29,-48.58,-81.2,-62.43,112.3,22.07,8.35,46.97,-108.61,129.19
2481373,498_1,0.3528,-48.61,-44.72,-30.41,-1.74,49.19,-14.45,-27.06,-4.25,45.16,-38.38,-54.45,-22.46,-11.99,-64.73,95.95,-5.81,-60.25,-84.26,82.22,62.01,26.56,6.6,-85.24,106.12
2481374,498_1,0.3555,-62.87,-21.8,-40.01,-17.47,69.69,-3.66,-53.8,-2.68,48.72,-46.84,-35.57,-21.19,-43.96,-19.01,81.66,39.88,-40.44,-103.82,49.81,102.83,41.27,-25.35,-55.3,81.18
2481375,498_1,0.3583,-65.32,-5.91,-43.76,-24.49,79.14,7.0,-68.56,-5.23,46.79,-45.43,-20.67,-17.41,-66.39,24.88,68.34,81.73,-24.17,-118.89,19.85,138.86,51.13,-47.02,-24.57,57.68
2481376,498_1,0.3611,-58.18,3.11,-42.47,-23.17,78.33,16.95,-71.79,-11.45,40.1,-36.08,-9.7,-12.26,-78.79,61.23,57.12,114.39,-12.37,-128.15,-4.34,165.67,56.09,-58.34,2.37,37.84
2481377,498_1,0.3639,-44.44,6.57,-37.25,-15.19,69.39,25.4,-65.38,-20.07,30.22,-21.48,-1.84,-6.61,-82.01,86.63,48.36,134.72,-4.72,-131.38,-21.03,180.73,57.11,-60.63,22.71,22.73
2481378,498_1,0.3667,-27.5,6.36,-29.44,-2.99,55.4,31.51,-52.24,-29.45,19.27,-4.72,3.99,-1.17,-77.87,100.04,41.89,141.86,-0.11,-129.31,-30.0,183.57,55.75,-56.04,35.43,12.42
2481379,498_1,0.3694,-10.63,4.39,-20.47,10.77,39.82,34.57,-35.73,-37.91,9.5,11.13,8.77,3.58,-68.67,102.41,37.26,136.94,2.83,-123.25,-32.12,175.45,53.65,-46.98,41.05,6.31
2481380,498_1,0.3722,3.33,2.2,-11.65,23.6,25.88,34.14,-19.05,-44.03,2.92,23.42,13.07,7.33,-56.72,95.98,33.86,122.43,5.35,-114.66,-28.99,158.76,52.11,-35.74,41.01,3.4
2481381,498_1,0.375,12.38,0.83,-4.05,33.49,16.06,30.13,-4.89,-46.79,0.89,30.3,17.06,9.93,-44.03,83.57,31.09,101.43,8.32,-104.67,-22.49,136.2,51.79,-24.16,37.19,2.58
2481382,498_1,0.3778,15.51,0.78,1.62,39.01,11.82,22.77,4.88,-45.58,3.96,30.97,20.52,11.39,-32.1,67.99,28.39,76.99,12.13,-93.78,-14.46,110.27,52.58,-13.53,31.39,2.84
2481383,498_1,0.3806,12.71,2.12,5.01,39.45,13.47,12.68,9.35,-40.27,11.77,25.71,23.1,11.82,-21.81,51.57,25.3,51.68,16.71,-81.82,-6.49,82.78,53.74,-4.61,25.09,3.38
2481384,498_1,0.3833,4.85,4.66,6.12,34.76,20.25,0.74,8.48,-31.17,23.18,15.76,24.44,11.41,-13.52,35.99,21.49,27.32,21.71,-68.15,0.27,54.79,54.16,2.29,19.3,3.66
2481385,498_1,0.3861,-6.55,8.06,5.28,25.53,30.58,-11.93,3.04,-19.02,36.5,3.0,24.35,10.39,-7.17,22.24,16.72,4.98,26.64,-51.97,5.1,26.77,52.7,7.13,14.57,3.38
2481386,498_1,0.3889,-19.65,11.94,3.02,12.92,42.48,-24.16,-5.64,-4.94,49.8,-10.41,22.9,9.04,-2.55,10.77,10.93,-14.87,31.11,-32.8,7.72,-1.09,48.62,10.02,11.1,2.46
2481387,498_1,0.3917,-32.58,15.96,-0.05,-1.51,53.88,-34.8,-15.96,9.68,61.26,-22.48,20.39,7.6,0.59,1.67,4.22,-32.04,34.89,-10.85,8.15,-28.48,41.79,11.12,8.83,0.98
2481388,498_1,0.3944,-43.74,19.81,-3.32,-16.03,63.01,-42.88,-26.25,23.35,69.41,-31.67,17.29,6.28,2.36,-5.12,-3.16,-46.36,38.0,12.84,6.59,-54.64,32.77,10.52,7.61,-0.88
2481389,498_1,0.3972,-51.92,23.26,-6.27,-28.95,68.65,-47.71,-35.1,34.67,73.35,-37.13,14.17,5.21,2.71,-9.68,-10.79,-57.44,40.63,36.48,3.32,-78.26,22.68,8.32,7.2,-2.86
2481390,498_1,0.4,-56.46,26.18,-8.52,-38.89,70.2,-48.95,-41.48,42.53,72.81,-38.69,11.6,4.44,1.56,-12.05,-18.19,-64.71,43.0,57.81,-1.43,-97.64,12.89,4.61,7.39,-4.71
2481391,498_1,0.4028,-57.22,28.47,-9.85,-44.98,67.7,-46.72,-44.8,46.29,68.1,-36.78,10.02,3.96,-1.11,-12.33,-24.8,-67.48,45.2,74.63,-7.36,-110.97,4.63,-0.39,7.92,-6.19
2481392,498_1,0.4055,-54.51,30.14,-10.16,-46.88,61.67,-41.49,-44.94,45.92,59.99,-32.26,9.72,3.72,-5.04,-10.71,-30.08,-65.33,47.03,85.25,-14.05,-116.85,-1.31,-6.31,8.55,-7.09
2481393,498_1,0.4083,-49.01,31.22,-9.42,-44.84,52.95,-34.13,-42.13,41.91,49.56,-26.15,10.76,3.64,-9.7,-7.68,-33.5,-58.36,47.95,88.84,-20.85,-114.66,-4.79,-12.56,8.97,-7.29
2481394,498_1,0.4111,-41.6,31.8,-7.69,-39.61,42.56,-25.7,-36.91,35.24,38.01,-19.46,13.03,3.67,-14.21,-3.99,-34.64,-47.44,47.18,85.62,-26.79,-104.88,-6.31,-18.38,8.87,-6.71
2481395,498_1,0.4139,-33.23,31.98,-5.11,-32.26,31.53,-17.32,-30.0,27.2,26.5,-13.05,16.19,3.74,-17.54,-0.63,-33.22,-34.18,43.84,76.73,-30.68,-89.03,-6.79,-22.91,7.93,-5.32
2481396,498_1,0.4167,-24.86,31.88,-1.84,-24.03,20.86,-10.02,-22.24,19.11,16.06,-7.48,19.78,3.85,-18.74,1.4,-29.15,-20.69,37.25,63.98,-31.33,-69.46,-7.28,-25.32,5.92,-3.2
2481397,498_1,0.4194,-17.24,31.58,1.84,-16.11,11.38,-4.58,-14.48,12.16,7.46,-3.1,23.29,3.97,-17.13,1.32,-22.58,-9.11,27.17,49.42,-27.89,-48.83,-8.64,-24.97,2.77,-0.47
2481398,498_1,0.4222,-10.93,31.17,5.65,-9.46,3.71,-1.41,-7.48,7.18,1.19,0.05,26.2,4.14,-12.54,-1.18,-13.95,-1.12,14.02,34.91,-20.15,-29.58,-11.26,-21.57,-1.37,2.67
2481399,498_1,0.425,-6.18,30.66,9.27,-4.72,-1.78,-0.53,-1.82,4.55,-2.63,2.11,28.08,4.36,-5.38,-5.77,-3.93,2.47,-1.11,21.8,-8.69,-13.46,-14.99,-15.21,-6.12,5.97
2481400,498_1,0.4278,-2.92,30.02,12.44,-2.07,-5.06,-1.56,2.18,4.15,-4.18,3.38,28.6,4.68,3.41,-11.58,6.6,1.86,-16.58,10.72,5.14,-1.23,-19.09,-6.48,-10.89,9.12
2481401,498_1,0.4306,-0.8,29.13,14.98,-1.35,-6.35,-3.86,4.46,5.47,-3.95,4.25,27.6,5.12,12.54,-17.33,16.7,-1.86,-30.48,1.58,19.45,7.29,-22.45,3.67,-15.01,11.83
2481402,498_1,0.4333,0.74,27.79,16.83,-2.07,-6.13,-6.56,5.18,7.67,-2.63,5.11,25.08,5.72,20.63,-21.7,25.44,-7.05,-40.96,-6.22,32.19,13.02,-23.88,14.04,-17.81,13.84
2481403,498_1,0.4361,2.34,25.79,17.99,-3.65,-5.01,-8.78,4.63,9.86,-1.03,6.29,21.18,6.47,26.55,-23.59,32.1,-11.93,-46.65,-13.47,41.59,17.2,-22.4,23.37,-18.83,14.99
2481404,498_1,0.4389,4.54,22.94,18.56,-5.52,-3.55,-9.67,3.09,11.17,0.15,7.94,16.19,7.34,29.59,-22.44,36.18,-15.03,-46.9,-20.79,46.47,20.95,-17.6,30.55,-17.86,15.2
2481405,498_1,0.4417,7.64,19.14,18.62,-7.22,-2.15,-8.61,0.8,10.96,0.37,10.05,10.53,8.23,29.61,-18.23,37.54,-15.42,-41.99,-28.4,46.39,25.05,-9.81,34.84,-14.99,14.52
2481406,498_1,0.4444,11.62,14.42,18.19,-8.47,-0.95,-5.32,-2.14,8.89,-0.55,12.36,4.71,9.02,27.0,-11.49,36.39,-12.75,-33.09,-36.01,41.73,29.77,-0.13,35.93,-10.61,13.1
2481407,498_1,0.4472,16.11,9.02,17.26,-9.1,0.2,0.11,-5.65,4.9,-2.4,14.45,-0.72,9.54,22.49,-3.06,33.27,-7.26,-22.06,-42.95,33.5,34.96,9.76,33.93,-5.29,11.16
2481408,498_1,0.45,20.46,3.32,15.74,-9.0,1.62,7.16,-9.6,-0.7,-4.6,15.82,-5.21,9.62,16.93,6.07,28.97,0.48,-11.14,-48.44,23.14,40.3,17.93,29.3,0.35,8.98
2481409,498_1,0.4528,23.9,-2.19,13.58,-8.03,3.73,14.92,-13.69,-7.42,-6.34,16.02,-8.33,9.15,11.05,14.97,24.42,9.66,-2.46,-51.8,12.26,45.4,22.67,22.69,5.68,6.85
2481410,498_1,0.4556,25.71,-6.97,10.76,-5.97,6.78,22.28,-17.41,-14.57,-6.76,14.75,-9.8,8.08,5.36,22.89,20.55,19.38,2.32,-52.75,2.37,49.98,22.86,14.82,10.23,5.07
2481411,498_1,0.4583,25.47,-10.6,7.39,-2.59,10.8,28.06,-20.05,-21.44,-5.19,11.97,-9.57,6.48,0.1,29.22,18.07,28.66,2.41,-51.38,-5.32,53.83,18.32,6.38,13.67,3.84
2481412,498_1,0.4611,23.08,-12.82,3.73,2.29,15.46,31.29,-20.86,-27.39,-1.33,7.93,-7.83,4.52,-4.69,33.54,17.35,36.54,-1.96,-48.14,-10.03,56.73,9.86,-2.04,15.82,3.3
2481413,498_1,0.4639,18.88,-13.58,0.18,8.69,20.12,31.39,-19.19,-31.9,4.6,3.09,-5.0,2.49,-9.02,35.52,18.31,41.99,-9.57,-43.68,-11.47,58.31,-0.83,-9.9,16.61,3.44
2481414,498_1,0.4667,13.49,-13.06,-2.77,16.42,23.95,28.29,-14.67,-34.69,11.88,-1.93,-1.61,0.69,-12.85,34.91,20.48,44.06,-18.46,-38.59,-9.79,58.05,-11.49,-16.75,16.08,4.13
2481415,498_1,0.4694,7.71,-11.6,-4.63,25.0,26.08,22.42,-7.32,-35.68,19.42,-6.55,1.79,-0.56,-16.04,31.59,23.06,41.95,-26.35,-33.33,-5.5,55.31,-19.74,-22.14,14.32,5.17
2481416,498_1,0.4722,2.38,-9.61,-5.0,33.76,25.8,14.63,2.4,-35.0,26.01,-10.24,4.73,-1.02,-18.33,25.56,25.14,35.13,-31.13,-28.14,0.69,49.43,-23.56,-25.68,11.48,6.29
2481417,498_1,0.475,-1.84,-7.45,-3.64,41.88,22.73,6.03,13.62,-32.91,30.52,-12.69,6.95,-0.59,-19.39,17.07,25.91,23.49,-31.32,-23.01,8.04,40.01,-21.69,-27.04,7.74,7.24
2481418,498_1,0.4778,-4.46,-5.39,-0.61,48.51,16.95,-2.28,25.23,-29.78,32.16,-13.72,8.37,0.68,-18.93,6.6,24.85,7.44,-26.35,-17.82,15.87,26.97,-13.9,-26.08,3.35,7.81
2481419,498_1,0.4806,-5.26,-3.57,3.77,52.91,8.98,-9.33,35.94,-25.96,30.63,-13.28,9.09,2.58,-16.78,-5.14,21.82,-12.05,-16.7,-12.35,23.64,10.75,-1.01,-22.84,-1.39,7.9
2481420,498_1,0.4833,-4.23,-2.01,8.95,54.49,-0.2,-14.43,44.5,-21.79,26.16,-11.44,9.36,4.78,-12.97,-17.2,17.09,-33.52,-3.77,-6.46,30.96,-7.7,15.19,-17.69,-6.13,7.49
2481421,498_1,0.4861,-1.59,-0.63,14.15,52.93,-9.41,-17.23,49.85,-17.5,19.43,-8.31,9.42,6.9,-7.74,-28.55,11.25,-55.16,10.46,-0.1,37.53,-27.05,32.37,-11.24,-10.49,6.65
2481422,498_1,0.4889,2.32,0.66,18.61,48.2,-17.39,-17.75,51.26,-13.24,11.42,-4.05,9.49,8.57,-1.58,-38.13,5.11,-74.95,23.78,6.56,43.06,-45.64,48.03,-4.28,-14.06,5.5
2481423,498_1,0.4917,7.05,1.96,21.63,40.54,-23.07,-16.29,48.43,-9.07,3.22,1.08,9.7,9.5,4.89,-44.98,-0.53,-90.94,34.24,13.2,47.24,-61.8,59.92,2.29,-16.48,4.23
2481424,498_1,0.4944,12.06,3.33,22.75,30.47,-25.74,-13.41,41.57,-4.98,-4.16,6.72,10.05,9.55,10.95,-48.39,-5.0,-101.44,40.49,19.32,49.67,-74.0,66.43,7.68,-17.47,2.99
2481425,498_1,0.4972,16.8,4.84,21.82,18.71,-25.17,-9.78,31.34,-0.91,-9.97,12.42,10.48,8.74,15.97,-47.95,-7.9,-105.26,41.93,24.43,49.93,-81.11,66.81,11.3,-16.85,1.9
2481426,498_1,0.5,20.77,6.53,19.05,6.05,-21.58,-6.05,18.73,3.18,-13.8,17.6,10.9,7.24,19.45,-43.65,-9.13,-101.88,38.8,28.09,47.62,-82.57,61.18,12.87,-14.61,1.06
2481427,498_1,0.5028,23.6,8.41,14.92,-6.65,-15.66,-2.7,4.91,7.24,-15.65,21.73,11.22,5.3,21.22,-35.94,-8.92,-91.53,32.02,30.09,42.49,-78.52,50.48,12.47,-10.93,0.45
2481428,498_1,0.5056,25.13,10.5,10.08,-18.63,-8.37,0.07,-8.92,11.04,-15.85,24.35,11.41,3.25,21.41,-25.65,-7.74,-75.26,22.94,30.47,34.58,-69.8,36.22,10.52,-6.15,0.05
2481429,498_1,0.5083,25.42,12.7,5.3,-29.16,-0.81,2.38,-21.67,14.18,-14.99,25.19,11.45,1.4,20.51,-13.97,-6.14,-54.82,13.08,29.63,24.31,-57.87,20.2,7.68,-0.75,-0.24
2481430,498_1,0.5111,24.77,14.84,1.29,-37.59,5.9,4.61,-32.43,16.07,-13.81,24.26,11.36,0.0,19.21,-2.26,-4.66,-32.49,3.76,28.15,12.53,-44.58,4.26,4.74,4.69,-0.48
2481431,498_1,0.5139,23.59,16.63,-1.39,-43.36,10.76,7.21,-40.41,16.15,-12.99,21.78,11.12,-0.81,18.28,8.16,-3.69,-10.77,-4.03,26.71,0.43,-31.85,-10.01,2.45,9.59,-0.74
2481432,498_1,0.5167,22.28,17.67,-2.39,-46.02,13.05,10.5,-45.0,14.03,-13.03,18.2,10.68,-0.94,18.36,16.14,-3.38,7.95,-9.77,25.91,-10.61,-21.41,-21.42,1.41,13.44,-1.02
2481433,498_1,0.5194,21.14,17.54,-1.65,-45.26,12.47,14.51,-45.82,9.61,-14.08,14.04,9.9,-0.41,19.79,20.97,-3.66,21.73,-13.35,26.1,-19.25,-14.43,-29.23,1.93,15.89,-1.29
2481434,498_1,0.5222,20.25,15.87,0.6,-40.99,9.19,18.98,-42.76,3.19,-15.86,9.83,8.6,0.68,22.47,22.42,-4.29,29.42,-14.97,27.3,-24.47,-11.38,-33.15,3.95,16.77,-1.48
2481435,498_1,0.525,19.55,12.44,3.8,-33.42,3.94,23.41,-36.17,-4.65,-17.72,6.01,6.58,2.18,25.85,20.77,-4.96,30.76,-14.97,29.18,-25.81,-11.99,-33.31,7.12,16.11,-1.52
2481436,498_1,0.5278,18.83,7.29,7.19,-23.11,-2.06,27.34,-26.86,-13.16,-18.74,2.91,3.68,3.89,29.08,16.74,-5.39,26.37,-13.67,31.18,-23.38,-15.39,-30.11,10.81,14.13,-1.35
2481437,498_1,0.5306,17.91,0.73,9.88,-10.89,-7.3,30.44,-16.15,-21.63,-17.94,0.72,-0.15,5.59,31.18,11.36,-5.43,17.62,-11.31,32.69,-17.95,-20.33,-24.17,14.3,11.21,-0.96
2481438,498_1,0.5333,16.66,-6.62,11.04,2.15,-10.26,32.65,-5.6,-29.47,-14.51,-0.5,-4.79,7.06,31.35,5.75,-5.07,6.34,-8.02,33.21,-10.7,-25.55,-16.24,16.89,7.82,-0.4
2481439,498_1,0.5361,15.07,-13.95,10.11,14.85,-9.75,34.13,3.21,-36.23,-8.04,-0.77,-9.92,8.11,29.13,0.93,-4.47,-5.54,-3.89,32.54,-3.07,-29.99,-7.12,18.02,4.5,0.24
2481440,498_1,0.5389,13.24,-20.37,6.91,26.13,-5.22,35.03,9.12,-41.59,1.34,-0.2,-15.03,8.59,24.61,-2.26,-3.85,-16.27,1.01,30.84,3.55,-33.02,2.34,17.44,1.76,0.83
2481441,498_1,0.5417,11.29,-25.06,1.73,35.18,3.12,35.4,11.59,-45.21,13.02,1.05,-19.49,8.43,18.35,-3.33,-3.48,-24.48,6.52,28.53,8.03,-34.48,11.34,15.14,0.04,1.23
2481442,498_1,0.5444,9.34,-27.41,-4.73,41.62,14.25,35.04,10.9,-46.81,25.91,2.75,-22.62,7.62,11.29,-2.13,-3.61,-29.35,12.41,26.22,9.62,-34.55,19.21,11.44,-0.34,1.32
2481443,498_1,0.5472,7.46,-27.18,-11.47,45.48,26.6,33.55,8.06,-46.13,38.74,4.62,-23.85,6.21,4.48,1.15,-4.4,-30.6,18.42,24.42,8.07,-33.6,25.47,6.82,0.77,0.99
2481444,498_1,0.55,5.63,-24.53,-17.44,47.2,38.3,30.52,4.51,-43.1,50.19,6.37,-22.8,4.31,-1.16,6.03,-5.93,-28.44,24.28,23.44,3.6,-31.98,29.9,1.89,3.3,0.22
2481445,498_1,0.5528,3.86,-20.03,-21.71,47.48,47.54,25.76,1.8,-38.0,59.15,7.71,-19.4,2.05,-5.04,11.81,-8.15,-23.47,29.78,23.22,-3.19,-29.86,32.55,-2.75,6.92,-0.96
2481446,498_1,0.5556,2.15,-14.52,-23.66,47.05,52.94,19.52,1.11,-31.52,64.77,8.47,-13.9,-0.45,-6.98,17.65,-10.89,-16.59,34.72,23.39,-11.36,-27.25,33.7,-6.56,11.11,-2.45
2481447,498_1,0.5583,0.65,-8.95,-23.08,46.44,53.69,12.61,2.97,-24.75,66.63,8.61,-6.91,-2.99,-7.16,22.68,-13.87,-8.87,38.87,23.37,-19.76,-24.07,33.74,-9.14,15.19,-4.07
2481448,498_1,0.5611,-0.37,-4.25,-20.19,45.89,49.74,6.33,7.08,-19.05,64.64,8.26,0.74,-5.41,-5.98,26.05,-16.67,-1.46,41.94,22.65,-27.12,-20.31,33.07,-10.25,18.4,-5.57
2481449,498_1,0.5639,-0.52,-1.06,-15.55,45.18,41.73,2.19,12.41,-15.76,59.1,7.76,8.1,-7.47,-3.87,27.03,-18.82,4.48,43.49,20.91,-32.18,-16.15,31.95,-9.8,20.06,-6.71
2481450,498_1,0.5667,0.64,0.29,-9.97,43.8,30.87,1.59,17.39,-15.91,50.56,7.61,14.19,-8.96,-1.2,25.11,-19.8,7.89,43.01,18.11,-33.84,-11.99,30.47,-7.85,19.61,-7.25
2481451,498_1,0.5694,3.48,-0.18,-4.35,41.01,18.74,5.42,20.29,-19.91,39.85,8.29,18.21,-9.67,1.82,20.02,-19.18,7.97,39.96,14.51,-31.24,-8.45,28.58,-4.6,16.8,-7.01
2481452,498_1,0.5722,8.17,-2.12,0.47,36.12,7.02,13.74,19.68,-27.4,27.94,10.19,19.61,-9.45,5.06,11.85,-16.67,4.24,33.99,10.54,-23.94,-6.07,26.15,-0.43,11.64,-5.92
2481453,498_1,0.575,14.53,-5.04,3.83,28.78,-2.76,25.68,14.81,-37.21,15.87,13.35,18.17,-8.27,8.35,1.05,-12.25,-3.32,25.11,6.55,-12.08,-5.21,23.13,4.14,4.52,-4.01
2481454,498_1,0.5778,21.97,-8.4,5.38,19.12,-9.52,39.48,5.83,-47.6,4.68,17.39,14.01,-6.26,11.42,-11.54,-6.23,-14.18,13.83,2.76,3.61,-5.8,19.62,8.4,-3.88,-1.49
2481455,498_1,0.5806,29.43,-11.78,5.08,7.92,-12.67,52.79,-6.1,-56.46,-4.69,21.4,7.65,-3.72,13.78,-24.8,0.76,-27.33,1.27,-0.84,21.74,-7.34,15.99,11.53,-12.66,1.35
2481456,498_1,0.5833,35.52,-14.9,3.2,-3.53,-12.2,63.06,-19.07,-61.79,-11.43,24.03,-0.12,-1.1,14.82,-37.41,7.78,-41.35,-10.98,-4.43,40.4,-9.0,12.89,12.72,-20.81,4.14
2481457,498_1,0.5861,38.75,-17.67,0.13,-13.6,-8.55,68.07,-30.81,-62.02,-14.96,23.75,-8.31,1.05,13.92,-48.05,13.77,-54.65,-21.04,-8.17,57.41,-9.91,11.1,11.33,-27.4,6.48
2481458,498_1,0.5889,37.86,-20.08,-3.64,-20.7,-2.4,66.43,-39.18,-56.38,-14.89,19.19,-15.85,2.19,10.68,-55.61,17.72,-65.67,-27.14,-12.0,70.6,-9.42,11.4,7.07,-31.69,8.04
2481459,498_1,0.5917,32.17,-22.17,-7.75,-23.61,5.51,57.87,-42.75,-45.05,-11.09,9.62,-21.75,1.88,5.13,-59.36,18.88,-73.19,-28.02,-15.46,78.2,-7.46,14.31,0.16,-33.27,8.61
2481460,498_1,0.5944,21.86,-23.94,-11.92,-21.77,14.51,43.46,-41.09,-29.29,-3.69,-4.75,-25.28,-0.05,-2.08,-59.13,16.97,-76.48,-23.31,-17.66,79.16,-4.67,19.92,-8.59,-32.16,8.15
2481461,498_1,0.5972,8.14,-25.31,-16.02,-15.42,24.05,25.47,-34.87,-11.2,6.86,-22.49,-26.11,-3.41,-9.75,-55.31,12.29,-75.46,-13.69,-17.34,73.39,-2.4,27.76,-17.84,-28.77,6.82
2481462,498_1,0.6,-6.92,-26.18,-19.94,-5.54,33.67,6.98,-25.64,6.48,19.84,-41.14,-24.39,-7.59,-16.21,-48.82,5.65,-70.7,-0.83,-13.16,61.79,-2.37,36.83,-25.91,-23.82,4.93
2481463,498_1,0.6028,-20.72,-26.42,-23.56,6.4,42.9,-8.63,-15.46,20.92,34.24,-57.55,-20.69,-11.71,-19.72,-40.95,-1.74,-63.29,12.93,-4.1,46.12,-6.32,45.83,-31.14,-18.27,2.86
2481464,498_1,0.6056,-30.67,-25.98,-26.72,18.71,51.25,-18.36,-6.41,29.6,48.9,-68.51,-15.93,-14.8,-18.86,-33.1,-8.58,-54.66,25.08,10.19,28.7,-15.37,53.4,-32.19,-13.03,1.02
2481465,498_1,0.6083,-34.71,-24.97,-29.31,29.87,58.26,-20.14,-0.15,30.86,62.7,-71.49,-11.15,-16.12,-12.91,-26.56,-13.71,-46.28,33.49,29.08,11.98,-29.68,58.45,-28.46,-8.9,-0.32
2481466,498_1,0.6111,-31.84,-23.63,-31.31,38.72,63.57,-13.25,2.33,24.2,74.71,-65.24,-7.33,-15.34,-2.16,-22.2,-16.38,-39.35,36.87,50.9,-1.9,-48.2,60.35,-20.19,-6.34,-0.99
2481467,498_1,0.6139,-22.3,-22.3,-32.82,44.66,66.99,1.53,0.9,10.44,84.28,-50.12,-5.17,-12.75,12.16,-20.4,-16.37,-34.64,34.99,73.19,-11.48,-68.79,59.05,-8.52,-5.47,-1.01
2481468,498_1,0.6167,-7.57,-21.33,-34.01,47.56,68.52,22.05,-3.87,-8.45,91.04,-28.15,-4.92,-9.05,28.06,-20.92,-13.96,-32.3,28.67,93.19,-16.2,-88.65,54.99,4.76,-6.06,-0.48
2481469,498_1,0.6194,9.97,-20.91,-34.99,47.64,68.23,45.23,-10.85,-29.7,94.77,-2.58,-6.3,-5.21,43.21,-23.1,-9.82,-31.95,19.41,108.35,-16.38,-104.99,48.98,17.61,-7.59,0.41
2481470,498_1,0.6222,27.53,-20.94,-35.71,45.26,66.2,67.59,-18.7,-50.24,95.29,22.75,-8.59,-2.07,55.5,-25.94,-4.81,-32.78,9.06,116.96,-13.09,-115.59,41.91,28.11,-9.42,1.47
2481471,498_1,0.625,42.54,-21.04,-35.88,40.78,62.39,85.98,-26.09,-67.36,92.37,44.23,-10.73,-0.18,63.38,-28.41,0.23,-33.8,-0.68,118.4,-7.81,-119.3,34.6,34.91,-10.89,2.52
2481472,498_1,0.6278,53.09,-20.63,-35.05,34.48,56.7,98.09,-32.03,-79.12,85.75,59.11,-11.62,0.3,66.21,-29.68,4.58,-34.11,-8.53,113.2,-2.07,-116.17,27.68,37.45,-11.5,3.39
2481473,498_1,0.6306,58.23,-19.08,-32.76,26.57,49.0,102.77,-35.9,-84.64,75.33,66.02,-10.38,-0.4,64.18,-29.27,7.79,-33.14,-13.8,102.81,2.9,-107.27,21.56,35.98,-10.96,3.96
2481474,498_1,0.6333,58.01,-15.9,-28.73,17.31,39.37,100.11,-37.54,-84.06,61.33,65.01,-6.6,-1.86,58.21,-27.16,9.64,-30.82,-16.36,89.1,6.38,-94.33,16.53,31.45,-9.21,4.13
2481475,498_1,0.6361,53.3,-10.96,-22.97,7.11,28.19,91.14,-37.13,-78.26,44.47,57.36,-0.42,-3.6,49.58,-23.77,10.12,-27.54,-16.47,73.98,8.27,-79.26,12.81,25.2,-6.49,3.8
2481476,498_1,0.6389,45.44,-4.48,-15.85,-3.37,16.26,77.53,-35.07,-68.54,25.99,45.19,7.46,-5.18,39.7,-19.82,9.36,-24.14,-14.6,59.05,9.01,-63.75,10.63,18.65,-3.19,2.92
2481477,498_1,0.6417,35.93,2.87,-8.11,-13.18,4.77,61.13,-31.78,-56.22,7.68,30.94,15.92,-6.29,29.79,-16.12,7.57,-21.56,-11.27,45.42,9.28,-49.12,10.25,13.01,0.21,1.51
2481478,498_1,0.6444,26.13,10.14,-0.7,-21.09,-4.8,43.72,-27.58,-42.42,-8.3,16.88,23.65,-6.76,20.84,-13.41,4.96,-20.64,-6.92,33.79,9.79,-36.21,11.85,9.08,3.21,-0.35
2481479,498_1,0.6472,17.1,16.19,5.35,-25.71,-10.92,26.81,-22.63,-27.99,-19.65,4.82,29.33,-6.6,13.53,-12.14,1.71,-21.82,-1.91,24.61,10.93,-25.55,15.52,7.16,5.42,-2.52
2481480,498_1,0.65,9.56,19.92,9.06,-25.7,-12.25,11.7,-16.97,-13.64,-24.27,-4.09,31.86,-5.89,8.3,-12.37,-2.06,-24.99,3.58,18.22,12.61,-17.46,21.16,7.1,6.58,-4.8
2481481,498_1,0.6528,3.94,20.42,9.69,-20.04,-7.99,-0.44,-10.58,-0.14,-20.58,-9.36,30.54,-4.84,5.4,-13.82,-6.29,-29.49,9.48,14.92,14.26,-12.13,28.47,8.44,6.61,-6.98
2481482,498_1,0.6556,0.47,17.21,6.87,-8.38,1.94,-8.51,-3.61,11.58,-7.93,-11.11,25.15,-3.7,4.95,-15.9,-11.0,-34.28,15.82,15.01,14.93,-9.63,37.06,10.55,5.57,-8.86
2481483,498_1,0.6583,-0.75,10.36,0.63,8.78,16.78,-11.47,3.57,20.35,13.2,-9.84,16.07,-2.71,6.9,-17.93,-16.23,-38.17,22.71,18.6,13.58,-9.87,46.43,12.82,3.67,-10.33
2481484,498_1,0.6611,0.26,0.53,-8.54,29.94,35.0,-8.55,10.27,24.99,41.08,-6.36,4.21,-2.09,11.03,-19.26,-21.98,-40.2,30.26,25.56,9.42,-12.58,56.13,14.74,1.21,-11.32
2481485,498_1,0.6639,3.34,-11.06,-19.75,52.75,54.5,0.53,15.57,24.57,72.9,-1.55,-9.08,-1.96,16.93,-19.45,-28.15,-39.84,38.44,35.35,2.21,-17.19,65.7,15.99,-1.47,-11.87
2481486,498_1,0.6667,8.11,-22.87,-31.87,74.39,73.04,15.27,18.51,18.76,105.15,3.69,-22.15,-2.38,23.94,-18.34,-34.45,-37.16,47.03,47.0,-7.6,-22.96,74.75,16.41,-4.01,-12.03
2481487,498_1,0.6694,13.99,-33.27,-43.65,92.04,88.55,34.3,18.33,8.12,134.17,8.61,-33.34,-3.31,31.22,-16.07,-40.41,-32.82,55.58,59.16,-18.84,-28.95,82.88,16.0,-6.1,-11.89
2481488,498_1,0.6722,20.19,-40.86,-53.9,103.48,99.53,55.42,14.78,-5.95,156.78,12.63,-41.26,-4.61,37.77,-13.0,-45.42,-27.93,63.39,70.29,-29.8,-34.2,89.71,14.78,-7.52,-11.49
2481489,498_1,0.675,25.87,-44.78,-61.66,107.53,105.2,75.93,8.18,-21.37,170.74,15.44,-45.01,-6.13,42.55,-9.69,-48.84,-23.83,69.68,78.83,-38.56,-37.82,94.89,12.79,-8.12,-10.85
2481490,498_1,0.6778,30.22,-44.81,-66.27,104.2,105.56,93.06,-0.51,-35.76,175.07,16.93,-44.35,-7.69,44.61,-6.74,-50.12,-21.79,73.71,83.48,-43.35,-39.09,98.12,10.04,-7.91,-9.97
2481491,498_1,0.6806,32.65,-41.41,-67.44,94.67,101.23,104.47,-9.9,-46.9,170.08,17.17,-39.71,-9.12,43.23,-4.8,-48.94,-22.79,74.9,83.39,-42.86,-37.61,99.26,6.49,-7.04,-8.83
2481492,498_1,0.6833,32.86,-35.53,-65.24,80.89,93.29,108.61,-18.44,-53.15,157.15,16.33,-32.05,-10.28,38.08,-4.4,-45.32,-27.35,73.01,78.3,-36.5,-33.34,98.33,2.14,-5.77,-7.45
2481493,498_1,0.6861,30.84,-28.39,-60.04,65.13,82.98,104.99,-24.78,-53.71,138.37,14.6,-22.66,-11.06,29.31,-6.0,-39.57,-35.42,68.17,68.67,-24.53,-26.61,95.55,-2.9,-4.47,-5.87
2481494,498_1,0.6889,26.88,-21.17,-52.49,49.5,71.55,94.22,-28.07,-48.69,116.12,12.12,-12.86,-11.43,17.6,-9.81,-32.34,-46.37,60.89,55.57,-8.05,-18.13,91.36,-8.44,-3.51,-4.21
2481495,498_1,0.6917,21.51,-14.8,-43.4,35.59,60.06,77.9,-28.09,-39.1,92.77,9.04,-3.8,-11.36,4.06,-15.82,-24.46,-59.06,51.98,40.59,11.12,-8.84,86.31,-14.07,-3.21,-2.62
2481496,498_1,0.6944,15.44,-9.86,-33.68,24.38,49.37,58.34,-25.28,-26.55,70.43,5.53,3.67,-10.91,-9.83,-23.67,-16.91,-72.0,42.49,25.64,30.69,0.14,81.06,-19.31,-3.76,-1.29
2481497,498_1,0.6972,9.49,-6.6,-24.28,16.24,40.1,38.27,-20.52,-13.05,50.89,1.88,9.07,-10.14,-22.47,-32.71,-10.58,-83.56,33.58,12.65,48.18,7.73,76.29,-23.55,-5.18,-0.39
2481498,498_1,0.7,4.52,-5.02,-16.07,11.19,32.68,20.4,-14.92,-0.62,35.57,-1.49,12.18,-9.14,-32.34,-42.0,-6.27,-92.2,26.36,3.31,61.32,13.06,72.59,-26.24,-7.29,-0.07
2481499,498_1,0.7028,1.33,-5.02,-9.77,9.1,27.36,7.12,-9.49,8.96,25.59,-4.08,12.99,-7.98,-38.22,-50.43,-4.51,-96.77,21.8,-1.17,68.36,15.57,70.47,-26.89,-9.79,-0.38
2481500,498_1,0.7056,0.57,-6.49,-5.89,9.83,24.28,0.15,-4.98,14.44,21.67,-5.35,11.65,-6.74,-39.35,-56.95,-5.53,-96.71,20.52,-0.25,68.4,15.14,70.26,-25.22,-12.29,-1.31
2481501,498_1,0.7083,2.57,-9.34,-4.63,13.32,23.42,0.35,-1.71,15.19,24.16,-4.87,8.39,-5.46,-35.55,-60.73,-9.24,-92.17,22.76,5.89,61.53,12.06,72.13,-21.15,-14.4,-2.76
2481502,498_1,0.7111,7.33,-13.49,-5.93,19.51,24.61,7.63,0.38,11.33,32.83,-2.49,3.59,-4.21,-27.18,-61.27,-15.2,-83.98,28.28,16.4,48.83,6.94,76.02,-14.84,-15.83,-4.56
2481503,498_1,0.7139,14.36,-18.74,-9.39,28.19,27.51,20.86,1.65,3.59,46.81,1.59,-2.2,-3.08,-15.1,-58.54,-22.75,-73.45,36.37,29.96,32.13,0.53,81.66,-6.67,-16.35,-6.52
2481504,498_1,0.7167,22.74,-24.72,-14.35,38.82,31.57,38.1,2.57,-6.73,64.5,6.77,-8.2,-2.21,-0.44,-52.85,-31.04,-62.08,45.94,45.06,13.64,-6.43,88.5,2.78,-15.89,-8.45
2481505,498_1,0.7194,31.19,-30.82,-20.01,50.41,36.1,56.76,3.55,-18.0,83.61,12.14,-13.5,-1.79,15.46,-44.79,-39.16,-51.14,55.66,60.23,-4.48,-13.43,95.8,12.81,-14.41,-10.18
2481506,498_1,0.7222,38.3,-36.21,-25.49,61.57,40.33,74.02,4.78,-28.47,101.46,16.64,-17.12,-2.0,31.32,-35.07,-46.28,-41.51,64.14,74.32,-20.5,-20.27,102.62,22.64,-11.95,-11.61
2481507,498_1,0.725,42.7,-40.01,-30.0,70.63,43.57,87.21,6.14,-36.52,115.27,19.29,-18.2,-2.98,45.96,-24.38,-51.68,-33.48,70.14,86.55,-33.32,-27.02,108.0,31.46,-8.57,-12.69
2481508,498_1,0.7278,43.37,-41.36,-32.99,75.9,45.37,94.22,7.21,-40.88,122.69,19.4,-16.25,-4.79,58.37,-13.34,-54.86,-26.87,72.7,96.48,-42.51,-33.85,111.02,38.53,-4.34,-13.43
2481509,498_1,0.7306,39.78,-39.67,-34.18,75.96,45.54,93.84,7.36,-40.8,122.13,16.7,-11.26,-7.31,67.76,-2.56,-55.56,-21.3,71.34,103.89,-48.11,-40.91,110.99,43.23,0.62,-13.85
2481510,498_1,0.7333,32.07,-34.72,-33.6,69.97,44.21,85.93,5.89,-36.16,113.1,11.46,-3.77,-10.28,73.54,7.33,-53.74,-16.47,66.06,108.6,-50.36,-48.03,107.65,45.18,6.07,-14.01
2481511,498_1,0.7361,21.0,-26.66,-31.51,57.78,41.73,71.45,2.21,-27.53,96.23,4.37,5.19,-13.28,75.36,15.63,-49.61,-12.43,57.42,110.4,-49.48,-54.66,101.19,44.25,11.65,-13.97
2481512,498_1,0.7389,7.87,-16.0,-28.36,40.04,38.57,52.34,-4.02,-16.07,73.21,-3.55,14.31,-15.82,73.16,21.53,-43.58,-9.71,46.4,108.97,-45.53,-59.86,92.35,40.63,16.84,-13.73
2481513,498_1,0.7417,-5.67,-3.53,-24.71,18.12,35.21,31.16,-12.81,-3.39,46.54,-11.14,22.26,-17.43,67.13,24.24,-36.21,-9.24,34.35,104.02,-38.41,-62.46,82.29,34.79,21.02,-13.28
2481514,498_1,0.7444,-17.89,9.85,-21.11,-6.03,32.08,10.81,-23.76,8.73,19.21,-17.36,27.92,-17.78,57.81,23.08,-28.13,-12.06,22.72,95.42,-28.03,-61.35,72.41,27.4,23.48,-12.56
2481515,498_1,0.7472,-27.2,23.12,-18.11,-30.05,29.56,-5.98,-36.08,18.65,-5.66,-21.39,30.64,-16.77,46.0,17.7,-20.02,-18.99,12.88,83.38,-14.52,-55.79,64.13,19.23,23.63,-11.47
2481516,498_1,0.75,-32.41,35.29,-16.16,-51.39,27.99,-16.99,-48.65,25.13,-25.14,-22.79,30.26,-14.58,32.7,8.21,-12.5,-30.26,5.88,68.61,1.58,-45.72,58.6,11.03,21.06,-9.92
2481517,498_1,0.7528,-32.86,45.41,-15.61,-67.59,27.67,-20.87,-60.12,27.57,-36.83,-21.52,27.15,-11.61,19.04,-4.77,-6.1,-45.31,2.29,52.32,19.23,-31.84,56.49,3.41,15.68,-7.86
2481518,498_1,0.7556,-28.49,52.6,-16.61,-76.6,28.79,-17.28,-69.05,26.07,-39.19,-17.85,22.05,-8.4,6.1,-20.09,-1.19,-62.75,2.14,36.03,36.93,-15.59,57.84,-3.19,7.8,-5.31
2481519,498_1,0.7583,-19.78,56.2,-19.08,-77.03,31.35,-6.88,-74.14,21.24,-31.79,-12.32,15.88,-5.47,-5.18,-36.22,2.01,-80.57,4.94,21.41,52.92,1.07,62.08,-8.54,-1.86,-2.44
2481520,498_1,0.7611,-7.67,55.83,-22.68,-68.49,35.1,8.84,-74.44,14.11,-15.34,-5.62,9.55,-3.23,-14.11,-51.42,3.49,-96.41,9.77,9.97,65.49,16.04,68.11,-12.58,-12.23,0.49
2481521,498_1,0.7639,6.58,51.53,-26.88,-51.7,39.54,27.86,-69.6,5.77,8.28,1.58,3.8,-1.88,-20.29,-63.99,3.37,-108.06,15.47,2.76,73.24,27.39,74.54,-15.37,-22.08,3.16
2481522,498_1,0.7667,21.57,43.82,-31.06,-28.52,44.01,47.94,-60.04,-2.75,36.34,8.6,-0.91,-1.42,-23.56,-72.51,1.99,-113.79,20.79,0.29,75.42,33.69,79.9,-17.0,-30.15,5.24
2481523,498_1,0.7694,35.9,33.66,-34.67,-1.71,47.87,66.98,-46.91,-10.64,65.63,14.9,-4.35,-1.72,-24.02,-76.05,-0.2,-112.72,24.55,2.43,72.0,34.17,82.95,-17.59,-35.45,6.49
2481524,498_1,0.7722,48.32,22.33,-37.37,25.52,50.66,83.27,-32.02,-17.3,92.97,20.02,-6.46,-2.57,-21.9,-74.34,-2.67,-104.92,25.82,8.55,63.73,28.77,82.86,-17.19,-37.38,6.8
2481525,498_1,0.775,57.84,11.23,-39.05,49.95,52.19,95.65,-17.42,-22.38,115.67,23.64,-7.3,-3.77,-17.54,-67.75,-4.86,-91.36,24.04,17.67,51.95,18.12,79.37,-15.88,-35.88,6.23
2481526,498_1,0.7778,63.82,1.58,-39.83,68.96,52.55,103.54,-5.09,-25.7,131.87,25.6,-6.9,-5.16,-11.38,-57.31,-6.32,-73.76,19.13,28.64,38.33,3.38,72.82,-13.68,-31.4,5.0
2481527,498_1,0.7806,66.05,-5.75,-39.98,80.91,52.05,106.92,3.51,-27.23,140.71,25.89,-5.34,-6.63,-3.88,-44.44,-6.8,-54.25,11.55,40.31,24.56,-13.87,64.09,-10.7,-24.83,3.38
2481528,498_1,0.7833,64.7,-10.45,-39.78,85.34,51.07,106.2,7.68,-27.07,142.36,24.63,-2.8,-8.09,4.41,-30.78,-6.3,-35.07,2.27,51.68,12.09,-31.8,54.47,-7.07,-17.21,1.66
2481529,498_1,0.7861,60.31,-12.75,-39.41,83.01,49.9,102.05,7.65,-25.37,137.81,22.13,0.4,-9.44,12.94,-17.94,-5.12,-18.26,-7.35,61.94,1.9,-48.53,45.44,-3.02,-9.64,0.07
2481530,498_1,0.7889,53.65,-13.44,-38.9,75.64,48.73,95.27,4.45,-22.36,128.64,18.77,3.65,-10.56,21.16,-7.31,-3.77,-5.5,-15.75,70.56,-5.48,-62.35,38.51,1.19,-3.01,-1.3
2481531,498_1,0.7917,45.6,-13.6,-38.11,65.6,47.53,86.67,-0.31,-18.28,116.73,14.98,6.11,-11.27,28.55,0.05,-2.86,2.02,-21.48,77.26,-9.88,-71.88,34.98,5.29,2.06,-2.46
2481532,498_1,0.7944,37.1,-14.42,-36.84,55.4,46.19,77.04,-4.81,-13.41,103.98,11.23,6.8,-11.41,34.71,3.45,-2.95,3.59,-23.49,81.91,-11.36,-76.22,35.75,9.04,5.21,-3.51
2481533,498_1,0.7972,29.02,-16.94,-34.84,47.28,44.45,67.13,-7.36,-8.11,92.07,7.94,4.78,-10.83,39.35,2.6,-4.41,-0.99,-21.33,84.56,-10.04,-75.08,41.16,12.23,6.36,-4.55
2481534,498_1,0.8,22.1,-21.75,-31.91,42.83,42.03,57.62,-6.78,-2.85,82.23,5.44,-0.54,-9.4,42.36,-2.38,-7.25,-11.39,-15.33,85.3,-6.01,-68.84,50.89,14.75,5.59,-5.63
2481535,498_1,0.8028,16.89,-28.91,-27.96,42.73,38.65,49.14,-2.56,1.78,75.16,3.99,-9.21,-7.13,43.77,-10.95,-11.09,-26.72,-6.55,84.23,0.65,-58.47,63.94,16.57,3.13,-6.7
2481536,498_1,0.8056,13.7,-37.84,-23.03,46.69,34.07,42.19,5.06,5.18,70.89,3.67,-20.6,-4.08,43.81,-22.12,-15.23,-45.55,3.37,81.51,9.76,-45.46,78.68,17.69,-0.68,-7.57
2481537,498_1,0.8083,12.58,-47.49,-17.3,53.59,28.13,37.07,15.19,6.78,68.92,4.4,-33.42,-0.48,42.82,-34.53,-18.72,-65.93,12.55,77.32,20.89,-31.64,93.11,18.18,-5.41,-8.0
2481538,498_1,0.8111,13.26,-56.55,-11.04,61.79,20.87,33.84,26.52,6.2,68.35,5.93,-45.92,3.4,41.23,-46.52,-20.66,-85.59,19.16,71.98,33.29,-18.93,105.12,18.15,-10.51,-7.73
2481539,498_1,0.8139,15.28,-63.69,-4.68,69.5,12.56,32.34,37.53,3.41,68.16,7.83,-56.24,7.16,39.48,-56.37,-20.35,-102.19,21.87,65.91,45.85,-9.03,112.91,17.72,-15.42,-6.58
2481540,498_1,0.8167,18.0,-67.9,1.31,75.2,3.74,32.23,46.86,-1.29,67.47,9.64,-62.77,10.39,37.97,-62.59,-17.52,-113.66,20.1,59.62,57.16,-3.15,115.26,17.01,-19.56,-4.52
2481541,498_1,0.8194,20.76,-68.65,6.39,77.92,-4.8,33.06,53.44,-7.19,65.77,10.89,-64.5,12.66,36.93,-64.14,-12.43,-118.49,14.17,53.64,65.77,-1.79,111.73,16.15,-22.39,-1.72
2481542,498_1,0.8222,23.02,-65.98,10.03,77.34,-12.12,34.36,56.65,-13.34,62.99,11.26,-61.22,13.64,36.43,-60.65,-5.83,-115.98,5.19,48.45,70.32,-4.68,102.75,15.26,-23.56,1.45
2481543,498_1,0.825,24.41,-60.4,11.78,73.75,-17.28,35.74,56.33,-18.69,59.45,10.61,-53.49,13.08,36.37,-52.47,1.18,-106.29,-5.1,44.37,69.89,-10.85,89.48,14.43,-22.89,4.54
2481544,498_1,0.8278,24.79,-52.78,11.35,67.85,-19.46,36.88,52.66,-22.28,55.72,9.09,-42.47,10.94,36.49,-40.62,7.35,-90.48,-14.76,41.51,64.1,-18.81,73.56,13.72,-20.45,7.01
2481545,498_1,0.8306,24.27,-43.99,8.6,60.41,-18.11,37.63,46.0,-23.39,52.41,7.02,-29.62,7.35,36.46,-26.56,11.57,-70.25,-21.97,39.76,53.25,-26.87,56.85,13.13,-16.53,8.46
2481546,498_1,0.8333,23.08,-34.72,3.6,52.01,-13.0,37.94,36.66,-21.71,49.93,4.87,-16.25,2.61,35.97,-12.01,13.07,-47.77,-25.42,38.86,38.32,-33.45,41.11,12.61,-11.62,8.61
2481547,498_1,0.8361,21.5,-25.2,-3.44,42.76,-4.23,37.93,24.76,-17.35,48.43,3.1,-3.27,-2.88,34.81,1.39,11.54,-25.37,-24.48,38.49,20.85,-37.39,27.84,12.08,-6.34,7.42
2481548,498_1,0.8389,19.81,-15.21,-12.19,32.29,7.76,37.79,10.15,-10.88,47.66,2.12,9.0,-8.7,32.86,12.21,7.21,-5.33,-19.28,38.32,2.74,-38.03,18.15,11.46,-1.34,5.1
2481549,498_1,0.8417,18.18,-4.09,-22.17,19.78,22.19,37.83,-7.48,-3.24,47.06,2.15,20.89,-14.44,30.2,19.49,0.71,10.41,-10.57,38.11,-14.02,-35.28,12.67,10.66,2.77,1.99
2481550,498_1,0.8444,16.77,8.99,-32.77,4.33,38.01,38.35,-28.39,4.34,45.84,3.28,33.12,-19.74,26.99,22.72,-7.1,20.41,0.52,37.76,-27.63,-29.5,11.66,9.63,5.59,-1.44
2481551,498_1,0.8472,15.67,24.69,-43.22,-14.77,53.86,39.6,-52.47,10.54,43.2,5.46,46.46,-24.23,23.46,21.95,-15.29,23.91,12.73,37.23,-36.8,-21.37,14.94,8.39,6.94,-4.76
2481552,498_1,0.85,15.01,43.13,-52.55,-37.51,68.18,41.69,-78.9,14.14,38.52,8.57,61.32,-27.46,19.84,17.73,-23.03,20.98,24.91,36.63,-40.96,-11.78,21.97,6.96,6.91,-7.6
2481553,498_1,0.8528,14.89,63.63,-59.64,-62.9,79.34,44.56,-106.0,14.23,31.52,12.42,77.41,-28.92,16.35,11.05,-29.76,12.56,36.08,36.14,-40.35,-1.71,31.85,5.43,5.83,-9.77
2481554,498_1,0.8556,15.45,84.54,-63.39,-88.82,85.81,47.94,-131.16,10.4,22.52,16.75,93.48,-28.03,13.16,3.19,-35.08,0.41,45.47,36.01,-35.99,7.72,43.35,3.91,4.2,-11.2
2481555,498_1,0.8583,16.8,103.38,-62.86,-112.14,86.44,51.45,-151.12,2.82,12.39,21.25,107.4,-24.36,10.47,-4.39,-38.79,-13.1,52.43,36.58,-29.44,15.28,54.95,2.51,2.59,-11.95
2481556,498_1,0.8611,18.97,117.21,-57.61,-129.19,80.7,54.66,-162.54,-7.71,2.62,25.55,116.51,-17.8,8.45,-10.34,-40.76,-25.35,56.32,38.18,-22.5,19.73,65.05,1.35,1.48,-12.12
2481557,498_1,0.8639,21.93,123.2,-47.89,-136.45,68.87,57.28,-162.61,-19.9,-4.98,29.23,118.13,-8.78,7.29,-13.55,-40.9,-33.98,56.56,41.09,-16.8,19.93,72.16,0.51,1.22,-11.82
2481558,498_1,0.8667,25.52,119.27,-34.8,-131.31,52.17,59.16,-149.84,-32.12,-8.55,31.89,110.27,1.54,7.13,-13.45,-39.13,-37.3,52.72,45.41,-13.45,15.12,75.18,0.03,1.93,-11.14
2481559,498_1,0.8694,29.52,104.69,-20.18,-112.8,32.58,60.39,-124.51,-42.72,-6.63,33.19,92.22,11.43,8.03,-10.05,-35.49,-34.73,44.74,51.0,-12.84,5.23,73.64,-0.11,3.51,-10.14
2481560,498_1,0.8722,33.65,80.38,-6.26,-82.04,12.53,61.18,-88.85,-50.33,1.44,33.02,64.89,18.88,9.91,-4.07,-30.15,-26.95,33.1,57.37,-14.57,-8.95,67.89,0.01,5.61,-8.85
2481561,498_1,0.875,37.68,48.92,4.83,-42.18,-5.63,61.79,-46.74,-54.17,15.15,31.46,30.82,22.1,12.53,3.18,-23.51,-15.84,18.87,63.74,-17.54,-25.69,59.02,0.31,7.74,-7.32
2481562,498_1,0.8778,41.41,14.09,11.62,2.02,-20.12,62.3,-2.99,-54.18,32.84,28.86,-6.24,20.09,15.53,10.01,-16.15,-4.13,3.66,69.09,-20.2,-42.57,48.73,0.69,9.31,-5.62
2481563,498_1,0.8806,44.69,-19.79,13.65,45.07,-30.07,62.58,37.48,-50.99,51.83,25.73,-42.03,12.94,18.5,14.58,-8.78,5.17,-10.69,72.34,-20.87,-56.89,38.97,1.11,9.76,-3.85
2481564,498_1,0.8833,47.36,-48.71,11.57,81.7,-35.53,62.2,70.53,-45.73,68.97,22.61,-72.55,1.92,21.04,15.33,-2.07,9.34,-22.45,72.58,-18.12,-66.21,31.52,1.58,8.64,-2.11
2481565,498_1,0.8861,49.22,-69.63,6.85,107.81,-37.29,60.59,93.35,-39.62,81.3,19.89,-94.67,-10.83,22.86,11.23,3.44,6.62,-30.38,69.27,-11.07,-68.9,27.68,2.16,5.74,-0.53
2481566,498_1,0.8889,49.98,-80.95,1.36,121.06,-36.4,57.18,104.75,-33.7,86.65,17.73,-106.49,-22.7,23.84,2.07,7.45,-3.48,-33.93,62.45,0.36,-64.48,27.96,2.9,1.13,0.81
2481567,498_1,0.8917,49.3,-82.59,-3.12,121.09,-33.9,51.61,105.06,-28.6,84.11,15.97,-107.41,-31.2,24.06,-11.45,9.9,-19.99,-33.35,52.75,15.38,-53.77,32.11,3.86,-4.79,1.82
2481568,498_1,0.8944,46.82,-75.81,-5.26,109.43,-30.46,43.92,95.84,-24.47,74.14,14.25,-97.99,-34.43,23.75,-27.85,10.96,-40.72,-29.51,41.39,32.43,-38.69,39.21,5.06,-11.39,2.48
2481569,498_1,0.8972,42.29,-62.83,-4.45,88.99,-26.34,34.57,79.5,-21.05,58.49,12.06,-79.71,-31.34,23.26,-45.06,10.91,-62.7,-23.67,29.97,49.4,-21.86,47.91,6.45,-17.89,2.78
2481570,498_1,0.9,35.59,-46.35,-0.88,63.55,-21.44,24.42,58.81,-17.83,39.81,8.96,-54.82,-22.05,22.96,-60.78,10.09,-82.73,-17.14,20.17,64.07,-6.04,56.79,7.93,-23.52,2.79
2481571,498_1,0.9028,26.86,-29.09,4.56,37.1,-15.43,14.57,36.54,-14.19,21.15,4.71,-26.15,-7.77,23.18,-72.91,8.78,-98.03,-11.03,13.43,74.41,6.39,64.63,9.38,-27.59,2.57
2481572,498_1,0.9056,16.48,-13.38,10.43,13.23,-7.9,6.17,15.1,-9.58,5.47,-0.58,3.05,9.25,24.11,-79.84,7.13,-106.62,-6.01,10.7,79.0,13.91,70.53,10.65,-29.64,2.2
2481573,498_1,0.9083,5.13,-0.96,15.05,-5.26,1.4,0.27,-3.65,-3.69,-4.85,-6.41,29.38,26.12,25.78,-80.69,5.21,-107.64,-2.31,12.23,77.2,16.0,74.01,11.61,-29.48,1.75
2481574,498_1,0.9111,-6.31,7.22,16.76,-16.69,12.51,-2.34,-18.57,3.52,-8.27,-11.98,49.62,39.75,28.05,-75.35,3.0,-101.24,0.24,17.54,69.18,13.17,74.95,12.2,-27.11,1.24
2481575,498_1,0.9139,-16.8,11.0,14.25,-20.65,25.17,-1.22,-29.28,11.74,-4.24,-16.38,61.34,47.38,30.58,-64.42,0.45,-88.47,2.03,25.58,55.84,6.63,73.43,12.36,-22.75,0.7
2481576,498_1,0.9167,-25.39,10.87,6.74,-17.84,38.93,3.73,-36.11,20.39,6.76,-18.87,63.26,47.02,32.95,-49.08,-2.4,-70.9,3.47,34.92,38.63,-2.02,69.63,12.13,-16.76,0.11
2481577,498_1,0.9194,-31.36,7.76,-5.83,-9.85,53.18,12.17,-39.87,28.81,23.46,-19.17,55.53,37.87,34.71,-30.85,-5.38,-50.39,4.78,44.01,19.31,-11.21,63.78,11.57,-9.61,-0.53
2481578,498_1,0.9222,-34.42,2.66,-22.76,1.42,67.2,23.38,-41.5,36.35,43.99,-17.59,39.59,20.45,35.48,-11.49,-8.2,-28.82,5.92,51.51,-0.19,-19.7,56.11,10.77,-1.88,-1.19
2481579,498_1,0.925,-34.77,-3.74,-42.55,14.21,80.13,36.23,-41.62,42.58,66.21,-15.01,17.71,-3.36,35.07,7.19,-10.41,-8.03,6.57,56.39,-17.99,-26.71,46.93,9.86,5.74,-1.77
2481580,498_1,0.9278,-32.94,-11.31,-62.98,27.39,90.91,49.32,-40.2,47.22,87.97,-12.54,-7.64,-30.59,33.46,23.47,-11.51,10.32,6.19,58.03,-32.31,-31.98,36.6,8.95,12.51,-2.17
2481581,498_1,0.9306,-29.6,-20.49,-81.4,40.51,98.18,61.2,-36.46,50.02,107.36,-11.15,-34.32,-57.56,30.84,35.81,-10.99,24.77,4.11,56.19,-41.62,-35.61,25.58,8.14,17.63,-2.19
2481582,498_1,0.9333,-25.24,-31.96,-94.99,53.65,100.39,70.57,-29.17,50.62,122.75,-11.21,-60.72,-80.5,27.55,43.07,-8.4,34.18,-0.3,50.93,-44.73,-37.98,14.34,7.46,20.43,-1.67
2481583,498_1,0.9361,-19.98,-46.17,-101.26,66.88,95.96,76.47,-17.12,48.44,132.81,-12.29,-85.73,-96.06,24.02,44.63,-3.41,37.85,-7.6,42.51,-40.91,-39.66,3.25,6.92,20.42,-0.45
2481584,498_1,0.9389,-13.56,-62.86,-98.38,79.83,83.62,78.34,0.23,42.71,136.4,-13.21,-108.37,-101.87,20.74,40.55,4.17,35.66,-18.26,31.32,-29.99,-41.31,-7.51,6.44,17.47,1.57
2481585,498_1,0.9417,-5.45,-80.71,-85.57,91.36,62.78,76.02,22.33,32.67,132.58,-12.36,-127.41,-96.82,18.14,31.55,14.35,28.11,-32.53,17.92,-12.47,-43.65,-17.97,5.95,11.87,4.43
2481586,498_1,0.9444,4.87,-97.39,-63.34,99.52,33.97,69.64,47.32,17.94,120.66,-8.17,-141.17,-81.29,16.63,19.02,26.96,16.4,-50.52,3.06,10.46,-47.45,-28.33,5.4,4.35,8.06
2481587,498_1,0.9472,17.64,-109.86,-33.59,101.95,-0.93,59.58,72.13,-1.15,100.45,0.36,-147.58,-57.11,16.51,4.84,41.6,2.28,-71.97,-12.28,36.93,-53.42,-38.85,4.77,-3.99,12.32
2481588,498_1,0.95,32.54,-115.03,0.43,96.45,-38.6,46.43,92.97,-23.25,72.57,13.3,-144.53,-27.45,17.99,-8.88,57.51,-12.14,-96.17,-26.76,64.45,-62.08,-49.57,4.1,-11.88,16.94
2481589,498_1,0.9528,48.6,-110.53,34.44,81.7,-74.55,31.08,105.98,-46.06,38.75,29.69,-130.51,3.52,21.06,-20.1,73.57,-24.68,-121.72,-38.78,90.06,-73.51,-60.13,3.48,-18.04,21.54
2481590,498_1,0.9556,64.3,-95.41,63.67,57.88,-103.76,14.75,108.08,-66.53,1.97,47.65,-105.31,31.27,25.54,-27.17,88.14,-33.41,-146.34,-46.5,110.55,-87.06,-69.54,3.04,-21.45,25.62
2481591,498_1,0.9583,77.86,-70.63,83.71,26.93,-121.68,-0.99,97.76,-81.57,-33.77,64.87,-70.49,51.68,30.95,-29.09,99.08,-36.98,-166.8,-48.05,122.76,-101.24,-76.1,2.86,-21.52,28.57
2481592,498_1,0.9611,87.68,-39.07,91.46,-7.65,-125.25,-14.28,75.54,-88.76,-64.06,79.16,-29.47,61.9,36.51,-25.74,103.92,-34.88,-179.11,-41.75,123.94,-113.59,-77.48,2.96,-18.24,29.73
2481593,498_1,0.9639,92.71,-4.91,85.85,-41.51,-113.75,-23.31,43.95,-87.08,-84.93,88.94,12.97,61.0,41.24,-17.85,100.12,-27.56,-178.92,-26.44,112.16,-120.96,-71.03,3.3,-12.19,28.43
2481594,498_1,0.9667,92.69,27.17,68.17,-70.4,-89.02,-26.72,7.09,-77.16,-93.78,93.57,51.66,50.2,44.04,-6.94,85.54,-16.33,-162.38,-1.8,86.73,-120.0,-54.34,3.75,-4.43,24.15
2481595,498_1,0.9694,88.14,53.08,41.76,-91.04,-55.15,-24.01,-30.2,-61.08,-90.06,93.28,82.11,32.47,43.92,4.98,59.1,-3.2,-127.08,31.35,48.55,-107.92,-26.0,4.16,3.64,16.67
2481596,498_1,0.9722,80.08,70.12,11.28,-101.72,-17.53,-15.84,-63.26,-41.8,-75.39,88.91,101.4,11.74,40.24,15.83,21.36,9.59,-73.15,70.83,0.31,-83.36,13.71,4.37,10.6,6.22
2481597,498_1,0.975,69.64,77.25,-18.27,-102.4,18.23,-3.96,-88.28,-22.41,-53.21,81.5,108.62,-8.04,32.91,23.84,-25.02,19.99,-4.04,113.13,-53.52,-47.16,62.22,4.27,15.26,-6.45
2481598,498_1,0.9778,57.83,75.08,-42.51,-94.39,47.27,9.07,-102.82,-5.48,-28.01,71.9,104.78,-23.75,22.58,27.88,-75.2,26.52,73.22,153.6,-107.0,-2.76,114.55,3.81,16.9,-19.98
2481599,498_1,0.9806,45.3,65.39,-58.33,-79.9,66.19,20.48,-105.92,7.28,-4.38,60.68,92.33,-33.55,10.59,27.66,-122.56,28.49,148.54,186.95,-153.4,43.89,163.76,3.07,15.42,-32.62
2481600,498_1,0.9833,32.45,50.62,-64.25,-61.51,73.39,27.85,-98.08,15.13,13.85,48.11,74.55,-36.97,-1.17,23.71,-159.63,26.1,210.2,208.08,-186.05,85.23,201.94,2.19,11.31,-42.36
2481601,498_1,0.9861,19.55,33.37,-60.42,-41.8,69.11,29.72,-81.1,18.13,24.27,34.44,54.82,-34.67,-10.61,17.14,-179.37,20.21,246.88,212.91,-199.47,113.36,221.74,1.37,5.56,-47.36
2481602,498_1,0.9889,6.93,15.99,-48.36,-23.01,55.12,25.82,-57.73,16.89,26.16,20.05,36.06,-28.03,-15.88,9.35,-176.7,12.11,250.04,199.2,-190.38,121.78,217.86,0.86,-0.61,-46.32
2481603,498_1,0.9917,-4.89,0.39,-30.57,-6.95,34.31,17.14,-31.32,12.34,20.42,5.66,20.41,-18.74,-15.75,1.64,-149.64,3.08,215.84,167.2,-158.4,106.84,188.47,0.84,-6.0,-38.74
2481604,498_1,0.9944,-15.15,-12.08,-9.97,5.17,10.08,5.6,-5.28,5.42,9.2,-7.7,9.04,-8.39,-9.84,-5.12,-100.0,-5.85,146.24,119.75,-106.29,68.72,135.76,1.46,-9.7,-25.16
2481605,498_1,0.9972,-23.02,-20.62,10.58,12.69,-14.25,-6.32,17.34,-3.04,-4.67,-18.85,2.16,1.73,1.28,-10.6,-33.24,-14.18,48.92,62.04,-39.58,11.56,65.89,2.77,-11.27,-7.06
2481606,498_1,1.0,-27.69,-25.02,28.7,15.58,-35.9,-16.17,34.3,-12.36,-18.23,-26.65,-0.74,10.76,16.3,-15.05,42.3,-21.89,-63.98,0.9,34.23,-57.25,-12.0,4.75,-10.77,13.31
2481607,498_1,1.0028,-28.62,-25.51,42.72,14.32,-52.95,-21.87,44.4,-22.06,-28.85,-30.28,-0.73,18.22,33.38,-19.07,116.85,-29.33,-177.91,-56.13,106.72,-128.43,-87.3,7.29,-8.73,33.32
2481608,498_1,1.0056,-25.65,-22.75,51.72,9.86,-64.37,-22.07,47.49,-31.76,-34.62,-29.41,0.92,23.87,50.55,-23.35,180.64,-36.87,-278.26,-101.86,169.7,-192.34,-149.64,10.25,-5.93,50.35
2481609,498_1,1.0083,-19.02,-17.66,55.5,3.41,-69.93,-16.23,44.3,-41.08,-34.38,-24.27,2.95,27.64,65.89,-28.28,225.45,-44.66,-352.51,-130.41,216.16,-240.52,-190.54,13.41,-3.23,62.23
2481610,498_1,1.0111,-9.34,-11.22,54.29,-3.77,-69.92,-4.59,36.11,-49.58,-27.82,-15.62,4.31,29.51,77.79,-33.76,245.59,-52.38,-391.83,-137.95,241.02,-266.71,-204.64,16.52,-1.31,67.46
2481611,498_1,1.0139,2.54,-4.31,48.63,-10.56,-64.86,11.93,24.33,-56.66,-15.33,-4.56,4.31,29.43,85.01,-39.12,238.63,-59.17,-391.92,-123.26,241.61,-267.54,-190.36,19.31,-0.49,65.4
2481612,498_1,1.0167,15.65,2.45,39.11,-16.21,-55.2,31.9,10.22,-61.57,2.12,7.54,2.64,27.36,86.71,-43.18,205.44,-63.84,-353.25,-87.84,217.89,-242.69,-149.92,21.44,-0.71,56.33
2481613,498_1,1.0194,29.04,8.86,26.31,-20.37,-41.22,53.63,-5.36,-63.45,23.19,19.3,-0.62,23.27,82.5,-44.6,150.01,-65.11,-280.61,-35.73,172.45,-194.65,-88.88,22.61,-1.55,41.32
2481614,498_1,1.0222,41.8,15.1,10.71,-23.15,-23.01,75.36,-22.01,-61.5,46.28,29.44,-5.07,17.21,72.44,-42.22,78.78,-62.06,-182.34,26.95,110.26,-128.35,-15.15,22.52,-2.35,22.09
2481615,498_1,1.025,53.18,21.69,-7.25,-25.06,-0.59,95.48,-39.76,-55.11,69.79,36.88,-10.05,9.29,57.07,-35.44,-0.25,-54.38,-69.22,92.9,38.08,-50.53,62.23,21.0,-2.49,0.77
2481616,498_1,1.0278,62.53,29.34,-27.05,-26.87,25.91,112.63,-58.82,-44.1,92.09,40.85,-14.69,-0.2,37.5,-24.42,-78.48,-42.6,46.84,154.59,-36.26,31.01,134.38,17.98,-1.47,-20.33
2481617,498_1,1.0306,69.35,38.76,-47.99,-29.53,55.92,125.76,-79.41,-28.84,111.63,40.97,-17.99,-10.8,15.34,-10.18,-147.76,-28.0,154.09,205.29,-104.87,108.12,193.76,13.6,0.84,-39.04
2481618,498_1,1.0333,73.32,50.44,-69.01,-33.99,88.24,134.14,-101.49,-10.4,126.9,37.33,-18.87,-21.84,-7.35,5.54,-201.34,-12.46,242.15,240.01,-160.76,173.2,235.09,8.16,4.22,-53.53
2481619,498_1,1.0361,74.33,64.46,-88.68,-41.08,120.89,137.22,-124.53,9.56,136.39,30.51,-16.31,-32.48,-28.25,20.56,-234.59,1.88,303.13,256.06,-198.64,219.93,255.82,2.17,8.09,-62.52
2481620,498_1,1.0389,72.53,80.35,-105.24,-51.29,151.14,134.62,-147.34,28.87,138.68,21.58,-9.55,-41.76,-45.07,32.65,-245.38,12.99,332.31,253.29,-215.56,244.03,256.22,-3.77,11.64,-65.41
2481621,498_1,1.0417,68.28,96.92,-116.76,-64.59,175.74,126.12,-168.06,45.23,132.66,11.93,1.68,-48.76,-55.93,39.91,-234.24,19.29,328.61,233.85,-211.12,243.73,238.98,-9.02,14.02,-62.3
2481622,498_1,1.0444,62.15,112.33,-121.46,-80.18,191.35,111.81,-184.2,56.55,117.84,3.16,16.87,-52.76,-59.65,41.11,-204.08,19.87,294.62,201.69,-187.37,220.07,208.56,-13.03,14.5,-53.96
2481623,498_1,1.0472,54.83,124.19,-118.06,-96.44,195.04,92.23,-192.96,61.34,94.69,-3.28,34.6,-53.33,-56.0,35.91,-159.72,14.67,236.11,161.81,-148.39,176.77,170.35,-15.39,12.65,-41.69
2481624,498_1,1.05,47.07,129.83,-106.0,-110.98,184.88,68.49,-191.54,58.98,64.91,-6.28,52.46,-50.39,-45.81,24.92,-107.16,4.44,161.34,119.4,-99.66,119.76,129.82,-15.94,8.47,-27.11
2481625,498_1,1.0528,39.56,126.7,-85.59,-120.92,160.29,42.34,-177.71,49.91,31.37,-5.32,67.28,-44.11,-30.81,9.61,-52.75,-9.4,79.79,79.14,-47.28,56.31,91.71,-14.77,2.39,-11.98
2481626,498_1,1.0556,32.91,112.85,-57.97,-123.36,122.27,15.98,-150.24,35.47,-2.22,-0.59,75.55,-34.77,-13.31,-8.0,-2.33,-24.98,0.91,44.59,2.94,-6.01,59.55,-12.18,-4.82,2.06
2481627,498_1,1.0583,27.56,87.4,-24.91,-116.0,73.33,-8.22,-109.35,17.7,-31.9,7.03,74.17,-22.61,4.22,-25.65,39.53,-40.31,-67.3,17.9,46.16,-60.56,35.32,-8.63,-12.17,13.72
2481628,498_1,1.0611,23.74,50.84,11.35,-97.7,17.25,-28.14,-56.95,-1.05,-54.2,16.16,61.04,-7.88,19.56,-41.25,70.02,-53.64,-119.27,-0.31,79.18,-102.52,19.44,-4.64,-18.64,22.17
2481629,498_1,1.0639,21.48,5.14,48.32,-68.9,-41.35,-42.22,3.42,-18.48,-66.76,25.13,35.76,9.05,31.13,-53.23,88.29,-63.67,-152.48,-10.78,100.7,-129.5,11.0,-0.73,-23.41,27.15
2481630,498_1,1.0667,20.48,-46.36,83.41,-31.65,-97.57,-49.83,66.93,-32.66,-68.82,32.23,-0.17,27.5,38.12,-60.75,95.3,-69.81,-167.42,-15.23,111.24,-141.57,8.21,2.7,-25.97,28.9
2481631,498_1,1.0694,20.19,-99.37,114.13,10.62,-146.8,-51.33,128.13,-42.23,-61.31,35.95,-43.32,46.3,40.56,-63.75,93.32,-72.12,-166.99,-15.85,112.79,-140.85,8.9,5.39,-26.21,28.02
2481632,498_1,1.0722,19.8,-149.09,138.37,53.58,-185.35,-48.02,181.7,-46.58,-46.64,35.19,-88.78,63.83,39.1,-62.84,85.28,-71.26,-155.56,-14.76,108.12,-130.76,11.1,7.2,-24.38,25.35
2481633,498_1,1.075,18.52,-190.8,154.59,92.67,-210.89,-41.74,223.23,-45.96,-28.24,29.45,-130.85,78.23,34.83,-59.14,74.11,-68.28,-137.84,-13.55,100.14,-115.12,13.38,8.15,-21.03,21.71
2481634,498_1,1.0778,15.8,-220.43,162.06,123.69,-222.78,-34.43,249.81,-41.44,-9.77,18.97,-163.88,87.68,28.98,-53.89,62.17,-64.36,-117.96,-12.98,91.23,-97.38,15.12,8.34,-16.84,17.82
2481635,498_1,1.0806,11.6,-235.02,160.91,143.47,-221.95,-27.57,260.23,-34.82,5.61,4.79,-183.19,90.72,22.71,-48.31,50.97,-60.58,-98.89,-12.94,82.91,-80.07,16.49,7.9,-12.5,14.16
2481636,498_1,1.0833,6.46,-233.14,152.01,150.22,-210.61,-21.83,255.03,-28.26,15.86,-11.38,-185.83,86.57,16.93,-43.3,41.15,-57.78,-82.2,-12.62,75.74,-64.67,18.24,6.99,-8.59,10.97
2481637,498_1,1.0861,1.33,-215.08,136.76,143.78,-191.65,-17.06,236.11,-23.8,20.34,-27.51,-171.1,75.22,12.24,-39.43,32.67,-56.41,-68.32,-10.84,69.46,-51.72,21.39,5.72,-5.52,8.29
2481638,498_1,1.0889,-2.78,-182.75,116.82,125.42,-167.94,-12.54,206.22,-22.86,19.63,-41.65,-140.67,57.52,8.89,-36.93,25.14,-56.59,-56.91,-6.46,63.42,-41.1,26.87,4.2,-3.49,6.06
2481639,498_1,1.0917,-5.2,-139.37,93.82,97.54,-141.73,-7.46,168.31,-25.83,15.12,-52.45,-98.27,35.1,6.85,-35.74,18.1,-58.16,-47.33,1.24,56.87,-32.43,35.2,2.47,-2.55,4.19
2481640,498_1,1.0944,-5.96,-89.02,69.16,63.08,-114.33,-1.38,125.1,-31.94,8.42,-59.45,-49.0,10.15,5.85,-35.66,11.28,-60.75,-39.06,12.33,49.36,-25.33,46.33,0.59,-2.64,2.61
2481641,498_1,1.0972,-5.77,-36.01,43.91,25.03,-86.0,5.66,78.66,-39.48,0.97,-63.08,1.53,-14.79,5.5,-36.44,4.7,-63.93,-31.88,26.15,40.91,-19.64,59.64,-1.41,-3.61,1.3
2481642,498_1,1.1,-5.75,15.64,18.74,-13.87,-56.24,13.23,30.47,-46.22,-6.07,-64.41,48.15,-37.26,5.36,-37.82,-1.34,-67.29,-25.94,41.41,32.03,-15.37,73.99,-3.48,-5.24,0.3
2481643,498_1,1.1028,-7.0,62.54,-6.02,-51.21,-24.22,20.83,-18.41,-49.91,-11.69,-64.73,86.78,-55.2,5.04,-39.59,-6.38,-70.51,-21.59,56.39,23.59,-12.71,87.97,-5.53,-7.31,-0.32
2481644,498_1,1.1056,-10.12,102.07,-30.22,-84.82,10.72,28.17,-66.97,-48.75,-14.9,-65.03,114.86,-67.24,4.27,-41.6,-9.91,-73.36,-19.3,69.29,16.66,-11.86,100.13,-7.46,-9.58,-0.5
2481645,498_1,1.1083,-15.05,132.43,-53.82,-112.75,48.64,35.34,-113.94,-41.7,-14.64,-65.78,131.37,-72.94,2.93,-43.69,-11.52,-75.73,-19.4,78.47,12.24,-12.95,109.22,-9.13,-11.78,-0.2
2481646,498_1,1.1111,-21.09,152.61,-76.65,-133.31,88.77,42.71,-157.63,-28.64,-9.95,-66.85,136.73,-72.72,1.05,-45.76,-10.95,-77.58,-22.02,82.78,11.06,-15.93,114.35,-10.39,-13.72,0.59
2481647,498_1,1.1139,-27.24,162.38,-98.3,-145.27,129.41,50.67,-196.04,-10.38,-0.29,-67.68,132.46,-67.7,-1.19,-47.69,-8.16,-78.95,-26.99,81.64,13.48,-20.57,115.12,-11.12,-15.19,1.81
2481648,498_1,1.1167,-32.5,162.35,-117.99,-148.16,168.09,59.29,-227.07,11.42,14.05,-67.6,120.84,-59.43,-3.51,-49.36,-3.34,-79.89,-33.88,75.18,19.37,-26.45,111.66,-11.23,-16.08,3.37
2481649,498_1,1.1194,-36.19,154.05,-134.52,-142.52,201.79,68.13,-248.81,34.42,31.7,-66.07,104.56,-49.47,-5.64,-50.68,3.09,-80.46,-41.96,64.17,28.13,-32.98,104.55,-10.71,-16.34,5.17
2481650,498_1,1.1222,-37.99,139.86,-146.29,-129.97,227.27,76.17,-259.86,55.87,50.21,-62.84,86.41,-39.1,-7.33,-51.58,10.54,-80.69,-50.36,49.92,38.75,-39.46,94.79,-9.64,-16.03,7.05
2481651,498_1,1.125,-37.86,122.8,-151.54,-113.09,241.46,81.98,-259.51,72.83,66.4,-57.91,68.94,-29.08,-8.43,-52.04,18.22,-80.6,-58.05,34.15,49.94,-45.12,83.59,-8.16,-15.27,8.87
2481652,498_1,1.1278,-35.8,106.17,-148.53,-95.05,241.86,84.12,-247.91,82.53,76.83,-51.47,54.19,-19.64,-8.92,-52.09,25.29,-80.18,-64.01,18.7,60.3,-49.17,72.26,-6.47,-14.25,10.47
2481653,498_1,1.1306,-31.78,92.97,-136.01,-79.13,226.93,81.45,-226.0,82.69,78.55,-43.73,43.49,-10.6,-8.88,-51.77,30.89,-79.41,-67.29,5.28,68.53,-50.89,62.04,-4.79,-13.23,11.69
2481654,498_1,1.1333,-25.68,85.4,-113.56,-68.13,196.51,73.5,-195.55,71.99,69.7,-34.93,37.31,-1.59,-8.48,-51.22,34.3,-78.32,-67.18,-4.73,73.59,-49.72,53.87,-3.3,-12.44,12.42
2481655,498_1,1.1361,-17.5,84.36,-81.89,-63.86,152.06,60.57,-158.89,50.39,49.98,-25.28,35.26,7.71,-7.97,-50.56,35.04,-76.94,-63.28,-10.56,74.94,-45.38,48.36,-2.17,-12.11,12.57
2481656,498_1,1.1389,-7.53,89.27,-43.0,-66.66,96.8,43.72,-118.79,19.45,20.83,-15.11,36.24,17.36,-7.57,-49.94,32.95,-75.36,-55.66,-12.06,72.59,-37.91,45.65,-1.47,-12.42,12.15
2481657,498_1,1.1417,3.49,98.08,-0.09,-75.36,35.47,24.55,-78.11,-17.68,-14.66,-4.94,38.61,27.03,-7.47,-49.5,28.24,-73.72,-44.8,-9.79,67.12,-27.72,45.48,-1.21,-13.43,11.2
2481658,498_1,1.1444,14.37,107.65,42.76,-87.37,-26.09,4.9,-39.59,-56.54,-52.24,4.6,40.5,36.08,-7.8,-49.34,21.47,-72.24,-31.57,-4.76,59.53,-15.53,47.31,-1.33,-15.14,9.84
2481659,498_1,1.1472,23.73,114.43,81.21,-99.25,-81.67,-13.42,-5.6,-91.98,-87.13,12.78,40.19,43.65,-8.57,-49.55,13.43,-71.14,-17.11,1.7,51.11,-2.3,50.44,-1.76,-17.44,8.24
2481660,498_1,1.15,30.29,115.12,111.28,-107.37,-125.64,-28.89,22.02,-119.06,-114.85,18.97,36.38,48.88,-9.73,-50.16,4.98,-70.68,-2.57,8.27,43.14,11.01,54.18,-2.38,-20.13,6.53
2481661,498_1,1.1528,33.24,107.48,130.1,-108.75,-153.82,-40.41,42.12,-133.95,-131.91,22.82,28.47,51.14,-11.13,-51.14,-3.06,-71.05,11.01,13.85,36.71,23.51,57.95,-3.1,-22.95,4.87
2481662,498_1,1.1556,32.4,90.79,136.39,-101.61,-164.24,-47.31,54.36,-134.69,-136.35,24.26,16.7,50.2,-12.62,-52.4,-10.09,-72.37,22.87,17.66,32.58,34.54,61.35,-3.84,-25.62,3.35
2481663,498_1,1.1583,28.21,65.96,130.74,-85.7,-157.5,-49.37,59.29,-121.66,-127.95,23.58,2.01,46.29,-14.09,-53.76,-15.73,-74.63,32.58,19.31,31.07,43.71,64.14,-4.57,-27.86,2.0
2481664,498_1,1.1611,21.54,35.31,115.5,-62.2,-136.71,-46.63,58.34,-97.47,-108.11,21.2,-14.08,40.12,-15.48,-55.0,-19.88,-77.67,40.04,18.69,32.18,50.9,66.15,-5.25,-29.43,0.84
2481665,498_1,1.1639,13.43,2.03,94.29,-33.4,-106.89,-39.41,53.65,-66.45,-79.41,17.62,-29.87,32.73,-16.85,-55.86,-22.57,-81.18,45.32,15.89,35.64,56.13,67.25,-5.92,-30.13,-0.17
2481666,498_1,1.1667,4.86,-30.54,71.3,-2.12,-74.05,-28.15,47.76,-33.8,-45.11,13.25,-43.75,25.28,-18.38,-56.08,-23.98,-84.77,48.61,11.08,41.01,59.49,67.28,-6.64,-29.89,-1.03
2481667,498_1,1.1694,-3.45,-59.49,50.51,28.74,-44.03,-13.5,43.14,-4.56,-8.59,8.38,-54.5,18.84,-20.27,-55.45,-24.27,-88.01,50.09,4.49,47.82,61.07,66.06,-7.49,-28.72,-1.76
2481668,498_1,1.1722,-11.04,-82.75,34.96,56.69,-21.46,3.73,41.68,17.3,27.05,3.21,-61.43,14.19,-22.73,-53.84,-23.62,-90.48,49.91,-3.54,55.48,60.92,63.49,-8.58,-26.7,-2.32
2481669,498_1,1.175,-17.67,-99.23,26.33,79.82,-9.1,22.48,44.38,29.44,59.26,-2.16,-64.38,11.69,-25.87,-51.26,-22.15,-91.84,48.17,-12.49,63.34,59.09,59.64,-10.01,-24.02,-2.7
2481670,498_1,1.1778,-23.24,-108.75,24.85,96.91,-7.54,41.54,51.17,31.31,86.18,-7.58,-63.61,11.32,-29.58,-47.83,-20.0,-91.86,44.99,-21.58,70.59,55.65,54.79,-11.85,-20.89,-2.86
2481671,498_1,1.1806,-27.72,-111.83,29.52,107.39,-15.54,59.6,61.03,23.95,106.6,-12.9,-59.68,12.67,-33.59,-43.83,-17.33,-90.5,40.56,-29.8,76.37,50.76,49.47,-14.06,-17.58,-2.79
2481672,498_1,1.1833,-31.06,-109.38,38.6,111.24,-30.55,75.48,72.36,9.46,120.0,-17.9,-53.3,15.2,-37.46,-39.66,-14.31,-87.89,35.17,-36.04,79.84,44.7,44.44,-16.55,-14.36,-2.48
2481673,498_1,1.1861,-33.22,-102.5,50.08,108.92,-49.47,88.31,83.36,-9.61,126.49,-22.31,-45.21,18.3,-40.68,-35.79,-11.14,-84.36,29.16,-39.33,80.39,37.85,40.49,-19.17,-11.52,-1.94
2481674,498_1,1.1889,-34.16,-92.41,62.14,101.3,-69.31,97.69,92.45,-30.73,126.8,-25.9,-36.16,21.45,-42.86,-32.71,-7.97,-80.4,22.91,-39.15,77.88,30.62,38.29,-21.71,-9.31,-1.17
2481675,498_1,1.1917,-33.92,-80.3,73.42,89.62,-87.57,103.7,98.53,-51.72,122.17,-28.43,-26.89,24.32,-43.79,-30.83,-4.84,-76.6,16.71,-35.62,72.75,23.35,38.2,-24.0,-7.94,-0.16
2481676,498_1,1.1944,-32.62,-67.41,83.07,75.38,-102.5,106.86,101.11,-70.87,114.21,-29.79,-18.08,26.77,-43.53,-30.46,-1.72,-73.54,10.74,-29.64,66.06,16.29,40.17,-25.9,-7.57,1.13
2481677,498_1,1.1972,-30.51,-54.91,90.68,60.28,-113.02,107.9,100.19,-86.9,104.69,-29.96,-10.37,28.78,-42.41,-31.67,1.56,-71.7,5.02,-22.68,59.29,9.52,43.69,-27.32,-8.23,2.71
2481678,498_1,1.2,-27.91,-43.88,96.13,45.97,-118.65,107.58,96.19,-98.91,95.26,-29.06,-4.29,30.43,-40.94,-34.32,5.26,-71.35,-0.56,-16.57,54.08,2.97,47.91,-28.25,-9.85,4.65
2481679,498_1,1.2028,-25.17,-35.13,99.46,33.8,-119.36,106.53,89.7,-106.35,87.24,-27.31,-0.19,31.78,-39.67,-38.02,9.6,-72.47,-6.2,-13.09,51.88,-3.54,51.77,-28.7,-12.24,6.97
2481680,498_1,1.2056,-22.49,-29.11,100.76,24.64,-115.46,105.16,81.32,-109.09,81.37,-24.96,1.81,32.9,-39.1,-42.2,14.77,-74.8,-12.11,-13.53,53.59,-10.22,54.32,-28.72,-15.08,9.65
2481681,498_1,1.2083,-19.92,-25.79,100.19,18.61,-107.63,103.62,71.59,-107.47,77.77,-22.24,1.87,33.78,-39.57,-46.26,20.84,-77.92,-18.48,-18.46,59.4,-17.28,54.86,-28.35,-18.01,12.66
2481682,498_1,1.2111,-17.32,-24.66,97.97,15.17,-96.86,101.92,60.93,-102.38,75.97,-19.3,0.4,34.42,-41.17,-49.61,27.68,-81.34,-25.39,-27.55,68.75,-24.85,53.18,-27.65,-20.66,15.9
2481683,498_1,1.2139,-14.36,-24.85,94.44,13.19,-84.34,99.97,49.67,-95.13,75.06,-16.13,-1.99,34.8,-43.79,-51.88,35.01,-84.67,-32.77,-39.68,80.45,-32.91,49.56,-26.68,-22.77,19.23
2481684,498_1,1.2167,-10.7,-25.38,90.01,11.35,-71.42,97.69,38.12,-87.27,74.01,-12.67,-4.69,34.95,-47.12,-52.94,42.41,-87.65,-40.42,-53.13,92.93,-41.29,44.74,-25.54,-24.13,22.47
2481685,498_1,1.2194,-6.09,-25.4,85.17,8.51,-59.31,95.0,26.66,-80.18,71.94,-8.8,-7.18,34.88,-50.71,-52.88,49.38,-90.15,-47.96,-65.96,104.47,-49.67,39.71,-24.37,-24.71,25.44
2481686,498_1,1.2222,-0.49,-24.5,80.35,4.08,-48.93,91.92,15.76,-74.8,68.38,-4.46,-9.15,34.66,-54.0,-52.0,55.43,-92.13,-54.94,-76.27,113.47,-57.58,35.44,-23.27,-24.57,27.98
2481687,498_1,1.225,5.81,-22.76,75.88,-1.72,-40.75,88.52,6.01,-71.42,63.43,0.29,-10.59,34.35,-56.43,-50.6,60.16,-93.48,-60.88,-82.55,118.61,-64.52,32.67,-22.29,-23.82,29.96
2481688,498_1,1.2278,12.26,-20.81,71.97,-7.89,-34.78,84.9,-1.95,-69.63,57.76,5.19,-11.74,33.97,-57.43,-48.99,63.35,-94.03,-65.4,-83.81,119.0,-70.05,31.77,-21.42,-22.61,31.33
2481689,498_1,1.2306,18.01,-19.59,68.69,-12.9,-30.67,81.24,-7.45,-68.53,52.44,9.81,-12.99,33.54,-56.52,-47.33,64.99,-93.49,-68.3,-79.69,114.2,-73.9,32.66,-20.53,-21.09,32.12
2481690,498_1,1.2333,22.12,-20.05,66.04,-15.05,-27.93,77.74,-9.89,-67.08,48.67,13.54,-14.73,33.08,-53.34,-45.68,65.27,-91.58,-69.63,-70.43,104.3,-76.04,34.97,-19.39,-19.4,32.41
2481691,498_1,1.2361,23.65,-22.86,64.03,-12.93,-26.17,74.68,-8.85,-64.48,47.5,15.73,-17.18,32.6,-47.77,-44.05,64.53,-88.14,-69.61,-56.83,89.89,-76.65,38.12,-17.76,-17.68,32.35
2481692,498_1,1.2389,21.88,-28.12,62.73,-5.82,-25.22,72.37,-4.18,-60.46,49.59,15.82,-20.28,32.11,-39.95,-42.45,63.09,-83.23,-68.59,-40.14,72.11,-76.06,41.57,-15.44,-16.1,32.06
2481693,498_1,1.2417,16.48,-35.3,62.28,6.1,-25.22,71.15,3.87,-55.37,55.07,13.46,-23.71,31.68,-30.31,-40.94,61.2,-77.18,-66.81,-22.0,52.57,-74.55,44.87,-12.32,-14.81,31.65
2481694,498_1,1.2444,7.62,-43.34,62.85,21.75,-26.43,71.39,14.56,-50.12,63.51,8.64,-26.86,31.39,-19.57,-39.64,58.89,-70.58,-64.27,-4.22,33.18,-72.2,47.77,-8.46,-13.95,31.12
2481695,498_1,1.2472,-3.94,-50.81,64.57,39.27,-29.08,73.4,26.7,-45.84,74.08,1.78,-29.05,31.31,-8.6,-38.7,55.98,-64.15,-60.62,11.33,16.01,-68.79,50.19,-4.07,-13.62,30.42
2481696,498_1,1.25,-16.92,-56.32,67.44,56.41,-33.15,77.36,38.66,-43.63,85.62,-6.35,-29.61,31.48,1.7,-38.23,52.08,-58.61,-55.22,23.0,2.93,-63.79,52.19,0.55,-13.81,29.43
2481697,498_1,1.2528,-29.65,-58.75,71.28,70.83,-38.23,83.25,48.63,-44.19,96.9,-14.66,-28.11,31.92,10.56,-38.3,46.78,-54.55,-47.29,29.63,-4.66,-56.54,53.95,5.03,-14.45,28.0
2481698,498_1,1.2556,-40.35,-57.48,75.77,80.57,-43.63,90.81,54.88,-47.73,106.74,-21.99,-24.43,32.55,17.44,-38.87,39.76,-52.32,-36.18,30.75,-6.13,-46.47,55.67,9.03,-15.4,26.01
2481699,498_1,1.2583,-47.43,-52.51,80.45,84.28,-48.5,99.55,56.11,-53.91,114.17,-27.32,-18.83,33.3,22.13,-39.8,31.05,-52.05,-21.74,26.73,-1.8,-33.48,57.59,12.27,-16.45,23.46
2481700,498_1,1.2611,-49.85,-44.43,84.88,81.53,-52.14,108.75,51.74,-62.06,118.53,-29.93,-11.92,34.07,24.71,-40.93,21.11,-53.64,-4.6,18.83,7.07,-18.16,59.93,14.53,-17.41,20.47
2481701,498_1,1.2639,-47.34,-34.28,88.73,72.78,-54.2,117.65,42.08,-71.34,119.51,-29.6,-4.57,34.8,25.47,-42.07,10.89,-56.81,13.79,8.97,18.41,-1.92,62.84,15.72,-18.12,17.3
2481702,498_1,1.2667,-40.44,-23.33,91.83,59.3,-54.79,125.49,28.31,-80.96,117.2,-26.56,2.26,35.47,24.84,-43.09,1.72,-61.23,31.2,-0.47,29.66,13.14,66.37,15.81,-18.44,14.35
2481703,498_1,1.2694,-30.42,-12.91,94.24,42.96,-54.49,131.68,12.23,-90.36,112.02,-21.47,7.68,36.13,23.25,-43.9,-4.88,-66.51,45.09,-7.12,38.18,24.56,70.49,14.87,-18.32,12.07
2481704,498_1,1.2722,-18.96,-4.13,96.12,25.83,-54.1,135.9,-4.11,-99.17,104.68,-15.22,11.07,36.88,21.11,-44.56,-7.56,-72.31,53.06,-8.93,41.69,30.08,75.08,13.06,-17.77,10.88
2481705,498_1,1.275,-7.81,2.25,97.74,9.85,-54.36,138.19,-18.85,-107.24,96.15,-8.74,12.17,37.8,18.79,-45.17,-5.42,-78.29,53.53,-4.56,38.64,28.2,79.97,10.62,-16.86,11.05
2481706,498_1,1.2778,1.61,5.91,99.37,-3.45,-55.68,138.97,-30.75,-114.47,87.56,-2.82,11.11,38.94,16.62,-45.91,1.74,-84.17,46.08,6.43,28.45,18.6,85.01,7.88,-15.74,12.68
2481707,498_1,1.2806,8.41,6.97,101.18,-13.12,-57.97,138.99,-39.34,-120.75,80.11,1.99,8.42,40.31,14.91,-46.97,13.34,-89.64,31.72,23.48,11.65,2.3,90.04,5.18,-14.56,15.61
2481708,498_1,1.2833,12.38,5.91,103.26,-18.86,-60.66,139.19,-44.96,-125.89,74.93,5.43,4.85,41.82,13.94,-48.49,28.03,-94.42,12.65,45.1,-10.23,-18.45,94.92,2.87,-13.52,19.48
2481709,498_1,1.2861,13.9,3.42,105.6,-20.9,-62.87,140.51,-48.54,-129.67,72.89,7.51,1.23,43.34,13.91,-50.5,43.95,-98.16,-8.15,68.99,-34.82,-40.61,99.45,1.2,-12.77,23.79
2481710,498_1,1.2889,13.71,0.27,108.13,-19.88,-63.66,143.71,-51.26,-131.89,74.5,8.45,-1.74,44.75,14.84,-52.85,59.03,-100.5,-27.58,92.27,-59.13,-60.99,103.28,0.3,-12.41,27.94
2481711,498_1,1.2917,12.71,-2.88,110.77,-16.64,-62.38,149.18,-54.24,-132.5,79.79,8.58,-3.59,45.92,16.56,-55.21,71.31,-101.09,-43.07,111.78,-79.96,-76.85,105.87,0.15,-12.47,31.39
2481712,498_1,1.2944,11.68,-5.55,113.44,-12.03,-58.88,156.87,-58.24,-131.66,88.26,8.25,-4.17,46.81,18.58,-57.07,79.27,-99.6,-53.09,124.47,-94.23,-86.48,106.48,0.59,-12.85,33.71
2481713,498_1,1.2972,11.19,-7.51,116.1,-6.78,-53.53,166.3,-63.53,-129.76,98.97,7.8,-3.65,47.43,20.25,-57.79,82.01,-95.85,-57.4,127.75,-99.4,-89.42,104.27,1.38,-13.36,34.63
2481714,498_1,1.3,11.46,-8.72,118.75,-1.45,-47.19,176.72,-69.94,-127.41,110.71,7.47,-2.45,47.86,20.78,-56.71,79.41,-89.78,-56.95,119.98,-93.86,-86.47,98.46,2.26,-13.77,34.09
2481715,498_1,1.3028,12.46,-9.32,121.41,3.63,-40.97,187.19,-76.94,-125.29,122.18,7.39,-1.04,48.2,19.46,-53.24,72.02,-81.61,-53.58,100.83,-77.3,-79.36,88.59,3.03,-13.79,32.23
2481716,498_1,1.3056,13.93,-9.55,124.06,8.28,-35.99,196.84,-83.86,-124.06,132.25,7.6,0.1,48.55,15.87,-47.07,60.97,-71.75,-49.46,71.44,-50.84,-70.33,74.69,3.59,-13.16,29.33
2481717,498_1,1.3083,15.53,-9.66,126.65,12.49,-33.15,204.96,-90.08,-124.18,140.07,8.02,0.68,48.95,9.97,-38.21,47.78,-60.86,-46.58,34.47,-17.01,-61.64,57.41,3.95,-11.72,25.76
2481718,498_1,1.3111,16.9,-9.88,129.07,16.33,-32.92,211.11,-95.13,-125.85,145.21,8.52,0.59,49.37,2.2,-27.1,34.08,-49.75,-46.33,-6.27,20.54,-55.07,37.99,4.19,-9.42,21.92
2481719,498_1,1.3139,17.73,-10.36,131.15,19.87,-35.29,215.16,-98.81,-128.96,147.66,8.92,-0.06,49.73,-6.62,-14.64,21.38,-39.33,-49.22,-46.33,57.6,-51.72,18.17,4.46,-6.39,18.21
2481720,498_1,1.3167,17.84,-11.18,132.71,23.19,-39.8,217.27,-101.22,-133.1,147.77,9.03,-1.03,49.91,-15.45,-2.05,10.94,-30.49,-54.92,-81.33,90.0,-51.84,-0.15,4.89,-2.92,14.93
2481721,498_1,1.3194,17.17,-12.31,133.63,26.35,-45.69,217.83,-102.67,-137.7,146.16,8.73,-1.98,49.79,-23.24,9.24,3.57,-23.97,-62.42,-107.63,114.28,-55.04,-15.14,5.52,0.57,12.31
2481722,498_1,1.3222,15.79,-13.69,133.89,29.32,-52.09,217.46,-103.71,-142.18,143.6,7.94,-2.63,49.31,-29.15,17.91,-0.36,-20.28,-70.35,-122.86,128.19,-60.37,-25.41,6.36,3.59,10.47
2481723,498_1,1.325,13.86,-15.22,133.61,32.04,-58.21,216.84,-104.94,-146.02,140.84,6.71,-2.81,48.5,-32.7,22.95,-0.91,-19.56,-77.38,-126.16,130.88,-66.73,-30.23,7.29,5.68,9.42
2481724,498_1,1.3278,11.66,-16.75,133.06,34.38,-63.44,216.68,-107.0,-148.91,138.47,5.2,-2.47,47.46,-33.83,23.92,1.48,-21.57,-82.46,-118.21,122.95,-73.04,-29.65,8.17,6.52,9.1
2481725,498_1,1.3306,9.48,-18.13,132.59,36.14,-67.49,217.54,-110.41,-150.71,136.86,3.63,-1.7,46.37,-32.84,20.99,6.16,-25.7,-85.08,-100.94,106.22,-78.48,-24.43,8.86,5.98,9.37
2481726,498_1,1.3333,7.66,-19.16,132.53,37.07,-70.26,219.76,-115.53,-151.39,136.08,2.29,-0.66,45.44,-30.33,15.0,12.29,-31.09,-85.25,-77.18,83.31,-82.58,-15.94,9.24,4.17,10.08
2481727,498_1,1.3361,6.52,-19.63,133.12,36.89,-71.84,223.36,-122.48,-150.96,135.92,1.45,0.45,44.83,-27.0,7.19,19.01,-36.74,-83.48,-50.19,57.3,-85.23,-5.81,9.3,1.44,11.02
2481728,498_1,1.3389,6.29,-19.33,134.42,35.35,-72.33,228.04,-131.14,-149.34,135.96,1.31,1.49,44.65,-23.49,-0.95,25.44,-41.68,-80.57,-23.23,31.29,-86.62,4.27,9.12,-1.74,11.97
2481729,498_1,1.3417,7.11,-18.09,136.29,32.29,-71.83,233.23,-141.1,-146.4,135.7,1.97,2.39,44.88,-20.27,-8.02,30.81,-45.16,-77.41,0.78,8.08,-87.09,12.86,8.86,-4.84,12.74
2481730,498_1,1.3444,8.96,-15.8,138.44,27.72,-70.41,238.2,-151.79,-141.99,134.62,3.41,3.13,45.45,-17.59,-12.93,34.48,-46.69,-74.8,19.56,-10.15,-87.07,18.97,8.76,-7.33,13.12
2481731,498_1,1.3472,11.68,-12.5,140.48,21.83,-68.19,242.22,-162.48,-136.06,132.34,5.49,3.78,46.19,-15.48,-15.04,36.03,-46.11,-73.34,31.68,-21.97,-86.94,22.1,9.05,-8.85,12.99
2481732,498_1,1.35,14.93,-8.38,142.03,15.04,-65.39,244.65,-172.47,-128.78,128.65,7.96,4.38,46.95,-13.8,-14.23,35.29,-43.6,-73.37,36.63,-26.88,-87.05,22.24,9.88,-9.15,12.28
2481733,498_1,1.3528,18.25,-3.74,142.81,7.94,-62.4,245.14,-181.12,-120.62,123.53,10.55,4.97,47.57,-12.38,-10.84,32.38,-39.54,-74.99,34.77,-25.2,-87.65,19.81,11.32,-8.22,11.02
2481734,498_1,1.3556,21.15,0.99,142.68,1.24,-59.73,243.58,-187.95,-112.27,117.17,12.94,5.53,47.95,-11.09,-5.53,27.68,-34.47,-78.14,27.25,-18.05,-88.94,15.46,13.26,-6.19,9.32
2481735,498_1,1.3583,23.16,5.35,141.65,-4.34,-57.94,240.18,-192.74,-104.58,109.93,14.87,6.02,48.04,-9.91,0.87,21.82,-29.0,-82.62,15.75,-7.03,-91.03,10.0,15.48,-3.32,7.35
2481736,498_1,1.3611,23.95,8.92,139.86,-8.22,-57.52,235.39,-195.49,-98.34,102.29,16.13,6.38,47.83,-8.93,7.52,15.52,-23.72,-88.15,2.22,5.93,-93.91,4.22,17.63,0.0,5.34
2481737,498_1,1.3639,23.38,11.42,137.55,-10.01,-58.74,229.79,-196.43,-94.12,94.77,16.61,6.56,47.36,-8.35,13.71,9.54,-19.12,-94.33,-11.38,18.89,-97.45,-1.14,19.37,3.38,3.5
2481738,498_1,1.3667,21.52,12.73,134.95,-9.61,-61.56,224.0,-195.95,-92.1,87.86,16.32,6.55,46.67,-8.35,18.87,4.58,-15.61,-100.64,-23.2,30.02,-101.3,-5.51,20.4,6.42,2.01
2481739,498_1,1.3694,18.62,12.89,132.33,-7.2,-65.66,218.57,-194.54,-92.11,81.95,15.36,6.38,45.8,-9.02,22.63,1.24,-13.45,-106.47,-31.73,37.78,-104.96,-8.42,20.52,8.75,1.0
2481740,498_1,1.3722,15.08,12.15,129.87,-3.25,-70.51,213.92,-192.69,-93.59,77.25,13.93,6.12,44.82,-10.34,24.82,-0.09,-12.76,-111.14,-35.84,41.03,-107.81,-9.61,19.74,10.11,0.54
2481741,498_1,1.375,11.31,10.83,127.72,1.61,-75.49,210.22,-190.8,-95.83,73.77,12.27,5.85,43.77,-12.1,25.41,0.82,-13.48,-114.0,-34.85,39.09,-109.2,-9.03,18.18,10.35,0.62
2481742,498_1,1.3778,7.72,9.32,125.94,6.67,-80.03,207.45,-189.18,-98.06,71.29,10.63,5.65,42.7,-13.99,24.56,3.93,-15.38,-114.5,-28.67,31.84,-108.63,-6.82,16.14,9.44,1.19
2481743,498_1,1.3806,4.6,7.95,124.53,11.24,-83.73,205.4,-187.95,-99.63,69.4,9.23,5.56,41.67,-15.66,22.56,8.96,-17.97,-112.37,-17.88,19.88,-105.83,-3.42,13.94,7.55,2.13
2481744,498_1,1.3833,2.13,6.92,123.41,14.78,-86.39,203.7,-187.07,-100.1,67.63,8.25,5.61,40.71,-16.79,19.87,15.39,-20.57,-107.59,-3.73,4.53,-100.86,0.52,11.88,5.01,3.33
2481745,498_1,1.3861,0.4,6.31,122.47,16.94,-87.97,201.91,-186.38,-99.21,65.5,7.76,5.74,39.83,-17.22,17.1,22.44,-22.3,-100.49,11.85,-12.23,-94.12,4.14,10.15,2.3,4.66
2481746,498_1,1.3889,-0.59,6.05,121.53,17.61,-88.52,199.64,-185.61,-96.92,62.7,7.8,5.9,39.02,-16.92,15.0,29.23,-22.14,-91.64,26.46,-27.91,-86.3,6.46,8.84,0.02,5.99
2481747,498_1,1.3917,-0.84,5.92,120.43,16.92,-88.11,196.6,-184.5,-93.27,59.1,8.31,5.99,38.28,-16.05,14.38,34.83,-19.12,-81.75,37.62,-39.92,-78.25,6.54,7.86,-1.2,7.24
2481748,498_1,1.3944,-0.37,5.64,119.01,15.2,-86.79,192.67,-182.84,-88.43,54.87,9.18,5.92,37.56,-14.84,15.96,38.44,-12.51,-71.62,43.18,-46.02,-70.82,3.61,7.05,-0.82,8.34
2481749,498_1,1.3972,0.78,4.94,117.17,12.93,-84.59,187.92,-180.52,-82.59,50.36,10.28,5.59,36.82,-13.56,20.23,39.58,-1.99,-61.94,41.81,-44.81,-64.69,-2.72,6.21,1.5,9.27
2481750,498_1,1.4,2.57,3.58,114.85,10.66,-81.57,182.56,-177.56,-76.05,46.06,11.43,4.95,36.03,-12.37,27.26,38.12,12.13,-53.24,33.39,-36.12,-60.22,-12.33,5.15,5.8,10.06
2481751,498_1,1.4028,4.91,1.47,112.08,8.95,-77.86,176.9,-174.04,-69.16,42.5,12.48,3.97,35.19,-11.32,36.59,34.32,28.81,-45.76,19.13,-21.15,-57.29,-24.5,3.75,11.71,10.71
2481752,498_1,1.4056,7.66,-1.34,108.94,8.3,-73.71,171.23,-170.15,-62.38,40.09,13.29,2.68,34.29,-10.25,47.13,28.78,46.34,-39.45,1.44,-2.29,-55.32,-38.0,1.99,18.5,11.24
2481753,498_1,1.4083,10.66,-4.63,105.55,9.07,-69.47,165.8,-166.04,-56.19,39.07,13.79,1.15,33.39,-8.88,57.36,22.2,62.57,-33.86,-16.56,17.35,-53.28,-51.21,-0.04,25.16,11.58
2481754,498_1,1.4111,13.74,-8.07,102.07,11.41,-65.53,160.74,-161.88,-51.02,39.46,13.97,-0.5,32.5,-6.89,65.5,15.19,75.27,-28.24,-31.72,34.64,-49.88,-62.45,-2.19,30.57,11.62
2481755,498_1,1.4139,16.76,-11.27,98.62,15.22,-62.26,156.07,-157.76,-47.2,41.03,13.89,-2.14,31.67,-4.0,69.94,8.12,82.66,-21.59,-41.6,47.2,-43.81,-70.32,-4.26,33.73,11.16
2481756,498_1,1.4167,19.62,-13.87,95.33,20.16,-59.87,151.73,-153.73,-44.79,43.36,13.65,-3.6,30.93,-0.12,69.63,0.97,83.84,-12.91,-45.04,53.94,-34.11,-74.07,-6.01,34.02,9.96
2481757,498_1,1.4194,22.29,-15.59,92.29,25.67,-58.38,147.58,-149.78,-43.61,45.91,13.42,-4.79,30.29,4.58,64.4,-6.52,79.18,-1.45,-42.42,55.29,-20.58,-73.85,-7.25,31.35,7.8
2481758,498_1,1.4222,24.78,-16.31,89.56,31.0,-57.63,143.46,-145.88,-43.23,48.06,13.34,-5.63,29.76,9.59,55.21,-14.7,70.51,12.88,-35.58,52.95,-4.09,-70.78,-7.84,26.27,4.6
2481759,498_1,1.425,27.06,-16.09,87.22,35.37,-57.41,139.22,-141.96,-43.18,49.18,13.52,-6.16,29.35,14.15,44.1,-23.65,60.89,29.16,-27.22,49.29,13.19,-66.87,-7.76,19.87,0.49
2481760,498_1,1.4278,29.08,-15.13,85.35,38.07,-57.59,134.68,-138.01,-43.08,48.67,14.02,-6.45,29.07,17.27,33.89,-32.87,54.23,45.23,-20.16,46.53,27.84,-64.6,-7.05,13.59,-4.17
2481761,498_1,1.4306,30.69,-13.72,84.08,38.57,-58.3,129.72,-134.06,-42.82,46.0,14.82,-6.64,28.98,17.97,27.69,-41.11,54.56,57.76,-16.57,45.88,35.6,-66.49,-5.84,8.9,-8.74
2481762,498_1,1.4333,31.63,-12.16,83.55,36.62,-59.99,124.25,-130.28,-42.69,40.77,15.84,-6.85,29.13,15.41,28.28,-46.43,65.18,62.64,-17.34,47.08,32.06,-74.48,-4.28,7.0,-12.43
2481763,498_1,1.4361,31.64,-10.67,83.98,32.28,-63.33,118.33,-126.92,-43.24,32.77,16.93,-7.2,29.58,9.11,37.47,-46.51,87.88,55.84,-21.87,48.36,13.68,-89.43,-2.57,8.5,-14.43
2481764,498_1,1.4389,30.48,-9.39,85.55,25.93,-69.03,112.19,-124.39,-45.13,22.07,17.92,-7.72,30.41,-0.84,55.61,-39.22,122.36,34.41,-28.24,47.0,-21.2,-110.88,-0.86,13.36,-14.09
2481765,498_1,1.4417,28.1,-8.36,88.43,18.18,-77.51,106.29,-123.15,-48.8,9.09,18.65,-8.4,31.67,-13.73,81.44,-23.3,165.99,-2.4,-33.79,40.17,-71.51,-136.92,0.72,20.86,-11.08
2481766,498_1,1.4444,24.62,-7.51,92.67,9.78,-88.66,101.33,-123.68,-54.2,-5.38,19.0,-9.15,33.4,-28.24,112.13,1.02,214.09,-52.35,-35.94,26.1,-133.03,-164.59,2.08,29.78,-5.51
2481767,498_1,1.4472,20.44,-6.78,98.17,1.46,-101.65,98.15,-126.36,-60.62,-20.25,18.92,-9.89,35.59,-42.54,143.79,31.68,260.6,-110.0,-32.91,4.88,-198.66,-190.34,3.19,38.67,2.02
2481768,498_1,1.45,16.13,-6.08,104.64,-6.12,-114.97,97.56,-131.35,-66.75,-34.24,18.42,-10.52,38.17,-54.57,172.1,64.8,299.16,-167.16,-24.32,-21.05,-259.37,-210.86,4.03,46.14,10.45
2481769,498_1,1.4528,12.35,-5.37,111.63,-12.58,-126.74,100.22,-138.51,-70.91,-46.14,17.54,-10.98,41.03,-62.41,193.18,95.21,324.31,-214.15,-11.32,-47.09,-305.7,-223.72,4.66,51.16,18.46
2481770,498_1,1.4556,9.7,-4.66,118.54,-17.75,-135.01,106.34,-147.36,-71.4,-55.02,16.38,-11.23,44.0,-64.62,204.28,117.24,332.59,-241.44,3.63,-67.33,-329.48,-227.98,5.16,53.26,24.63
2481771,498_1,1.4583,8.59,-3.98,124.71,-21.76,-138.29,115.61,-157.07,-67.0,-60.42,15.03,-11.3,46.87,-60.56,204.37,125.88,323.26,-241.58,17.37,-75.84,-325.46,-224.4,5.65,52.58,27.69
2481772,498_1,1.4611,9.17,-3.39,129.56,-24.89,-135.86,127.13,-166.6,-57.25,-62.41,13.58,-11.21,49.46,-50.58,194.26,117.77,298.5,-210.78,26.87,-68.1,-292.45,-215.31,6.27,49.81,26.82
2481773,498_1,1.4639,11.27,-2.98,132.68,-27.51,-127.96,139.55,-174.81,-42.64,-61.59,12.14,-11.0,51.58,-35.93,176.43,92.09,262.97,-149.97,29.99,-42.32,-233.63,-204.1,7.12,46.02,21.75
2481774,498_1,1.4667,14.5,-2.83,133.93,-29.92,-115.76,151.31,-180.71,-24.54,-58.88,10.76,-10.75,53.13,-18.54,154.5,50.93,222.96,-65.02,26.14,-0.22,-156.16,-194.43,8.26,42.32,12.93
2481775,498_1,1.4694,18.28,-3.02,133.43,-32.31,-101.07,160.94,-183.59,-4.85,-55.38,9.48,-10.48,54.08,-0.61,132.42,-0.8,185.08,34.03,16.51,52.9,-69.93,-189.42,9.71,39.6,1.45
2481776,498_1,1.4722,22.01,-3.59,131.59,-34.71,-85.93,167.45,-183.2,14.44,-52.08,8.31,-10.26,54.5,15.82,113.72,-56.12,155.1,134.5,3.83,108.94,14.08,-190.89,11.39,38.29,-11.09
2481777,498_1,1.475,25.23,-4.51,128.92,-37.09,-72.14,170.56,-179.77,31.77,-49.69,7.19,-10.08,54.46,29.28,100.87,-107.13,136.87,223.11,-8.18,158.45,85.65,-198.95,13.19,38.24,-22.82
2481778,498_1,1.4778,27.67,-5.63,125.97,-39.43,-60.88,170.83,-174.0,46.42,-48.58,6.03,-9.95,54.08,39.04,94.87,-146.43,131.77,288.3,-15.75,192.48,136.92,-212.06,14.99,38.79,-32.02
2481779,498_1,1.4806,29.32,-6.7,123.1,-41.81,-52.41,169.56,-166.81,58.67,-48.69,4.72,-9.81,53.44,45.15,95.28,-168.53,138.68,322.25,-15.86,204.46,163.59,-227.43,16.67,38.93,-37.39
2481780,498_1,1.4833,30.42,-7.37,120.4,-44.4,-46.11,168.42,-159.17,69.7,-49.64,3.14,-9.62,52.56,48.33,100.42,-170.85,154.45,322.2,-7.02,191.61,165.39,-241.67,18.21,37.64,-38.35
2481781,498_1,1.4861,31.37,-7.27,117.65,-47.46,-40.67,169.08,-151.81,81.16,-50.77,1.19,-9.31,51.38,49.66,107.94,-154.21,174.62,290.89,10.46,155.48,145.92,-251.67,19.68,34.19,-35.15
2481782,498_1,1.4889,32.57,-6.14,114.4,-51.17,-34.49,172.59,-145.02,94.6,-51.33,-1.13,-8.88,49.82,50.34,115.33,-122.59,194.37,235.92,34.55,101.69,111.8,-255.21,21.19,28.34,-28.76
2481783,498_1,1.4917,34.37,-3.85,110.11,-55.55,-26.17,179.06,-138.59,110.83,-50.68,-3.77,-8.38,47.77,51.42,120.46,-82.28,209.4,168.27,61.97,38.72,71.38,-251.41,22.92,20.52,-20.62
2481784,498_1,1.4944,36.91,-0.51,104.37,-60.35,-15.07,187.44,-131.92,129.48,-48.42,-6.51,-7.91,45.2,53.64,121.94,-40.6,216.58,100.14,88.94,-23.79,33.23,-240.76,24.96,11.7,-12.32
2481785,498_1,1.4972,40.09,3.56,97.11,-65.07,-1.55,195.65,-124.23,148.85,-44.64,-9.07,-7.63,42.21,57.3,119.36,-4.46,214.4,42.74,111.87,-76.93,4.57,-224.97,27.27,3.27,-5.18
2481786,498_1,1.5,43.58,7.94,88.76,-69.06,12.9,201.01,-114.88,166.16,-39.94,-11.09,-7.69,39.04,62.2,113.33,20.9,203.12,4.31,128.01,-114.1,-9.87,-206.49,29.61,-3.26,-0.06
2481787,498_1,1.5028,46.86,12.17,80.16,-71.72,25.93,200.87,-103.59,178.15,-35.43,-12.2,-8.14,36.08,67.66,105.31,32.8,184.75,-11.18,135.85,-132.11,-8.69,-188.15,31.56,-6.54,2.74
2481788,498_1,1.5056,49.28,15.96,72.49,-72.69,34.84,193.26,-90.59,181.88,-32.52,-12.15,-8.94,33.81,72.6,97.39,31.37,162.68,-4.43,135.14,-131.42,6.09,-172.65,32.56,-5.61,3.5
2481789,498_1,1.5083,50.19,19.26,66.88,-72.02,37.32,177.37,-76.46,175.53,-32.61,-10.81,-9.85,32.71,75.63,91.87,19.38,141.23,19.62,126.72,-115.75,29.43,-162.28,32.02,-0.14,2.88
2481790,498_1,1.5111,49.04,22.26,64.17,-70.25,32.1,153.85,-61.93,158.97,-36.7,-8.3,-10.54,33.11,75.19,90.88,1.46,125.03,53.14,112.11,-90.99,54.4,-158.77,29.41,9.54,1.71
2481791,498_1,1.5139,45.49,25.42,64.53,-68.36,19.51,124.7,-47.56,133.97,-45.02,-4.92,-10.58,35.1,69.82,95.93,-17.01,118.33,87.22,93.05,-63.8,73.52,-163.16,24.36,22.43,0.82
2481792,498_1,1.5167,39.53,29.27,67.36,-67.6,1.56,92.91,-33.44,103.95,-56.84,-1.14,-9.6,38.46,58.36,107.61,-31.09,124.35,113.83,71.05,-40.17,80.39,-175.95,16.69,37.0,0.79
2481793,498_1,1.5194,31.5,34.27,71.37,-69.23,-18.27,61.93,-19.13,73.39,-70.49,2.49,-7.37,42.67,40.24,125.45,-37.33,144.73,127.59,47.18,-24.18,71.08,-197.18,6.5,51.37,1.81
2481794,498_1,1.5222,22.14,40.64,74.79,-74.25,-35.78,35.06,-3.83,46.97,-83.59,5.43,-3.9,47.0,15.77,147.86,-34.56,179.19,126.92,22.08,-17.34,45.18,-226.42,-5.83,63.57,3.62
2481795,498_1,1.525,12.47,48.29,75.8,-83.15,-46.84,15.02,13.33,28.78,-93.58,7.28,0.54,50.64,-13.58,172.28,-24.01,225.36,114.17,-3.75,-18.6,6.06,-262.69,-19.58,71.78,5.53
2481796,498_1,1.5278,3.72,56.75,72.95,-95.79,-48.35,3.62,32.85,21.67,-98.21,7.79,5.42,52.88,-45.03,195.37,-8.92,278.8,94.89,-29.41,-25.03,-39.54,-304.06,-33.63,74.53,6.65
2481797,498_1,1.5306,-2.9,65.3,65.51,-111.44,-38.84,1.68,54.55,26.94,-96.05,6.92,10.12,53.28,-74.18,213.24,6.49,333.23,76.06,-52.89,-33.08,-82.7,-347.07,-46.35,70.73,6.14
2481798,498_1,1.5333,-6.34,73.15,53.69,-128.86,-18.83,9.15,77.43,44.28,-86.85,4.86,13.98,51.75,-94.96,221.67,18.33,380.87,63.8,-70.36,-40.22,-114.0,-386.0,-55.43,59.76,3.64
2481799,498_1,1.5361,-5.85,79.64,38.57,-146.62,9.37,25.26,99.81,72.08,-71.58,1.96,16.51,48.59,-99.58,216.4,24.42,412.84,61.01,-75.68,-46.44,-125.36,-412.31,-57.75,41.32,-0.4
2481800,498_1,1.5389,-1.09,84.39,21.94,-163.33,42.11,48.71,119.6,107.78,-52.23,-1.3,17.44,44.42,-78.65,193.29,25.45,419.82,65.44,-60.22,-55.51,-111.77,-414.35,-49.33,15.39,-4.42
2481801,498_1,1.5417,7.83,87.41,5.93,-177.88,75.19,77.85,134.81,148.38,-31.4,-4.38,16.85,40.07,-21.65,148.71,25.53,392.68,68.71,-13.3,-75.44,-72.52,-377.75,-25.36,-17.92,-5.69
2481802,498_1,1.5444,20.34,89.05,-7.37,-189.59,104.67,110.75,143.94,190.77,-11.74,-6.81,15.03,36.4,82.24,79.88,32.01,323.45,56.59,76.71,-118.01,-11.8,-286.66,19.48,-58.32,-0.47
2481803,498_1,1.5472,35.45,89.83,-16.27,-198.22,127.49,145.36,146.29,232.11,4.54,-8.22,12.47,34.19,242.87,-14.62,54.59,206.32,10.58,220.63,-197.29,61.5,-125.75,90.42,-105.41,15.53
2481804,498_1,1.55,51.89,90.26,-19.73,-203.93,141.95,179.6,142.05,270.03,16.05,-8.49,9.66,33.94,467.46,-134.42,103.6,38.78,-89.1,426.29,-327.21,134.81,117.03,191.78,-158.57,46.48
2481805,498_1,1.5528,68.24,90.7,-17.43,-207.16,147.75,211.6,132.16,302.82,22.38,-7.74,6.99,35.9,758.82,-276.98,188.0,-177.41,-259.68,696.27,-518.65,193.74,447.49,325.97,-216.88,95.59
2481806,498_1,1.5556,83.15,91.18,-9.75,-208.49,145.83,239.86,118.1,329.51,23.96,-6.28,4.68,39.99,1113.65,-437.42,313.18,-435.62,-511.75,1026.19,-776.37,224.56,862.58,492.49,-279.07,164.32
2481807,498_1,1.5583,95.52,91.47,2.38,-208.49,137.95,263.39,101.49,349.83,21.86,-4.61,2.73,45.88,1521.44,-608.79,479.19,-724.43,-845.54,1403.93,-1096.7,217.09,1348.86,687.22,-343.39,251.68
2481808,498_1,1.5611,104.63,91.16,17.67,-207.66,126.23,281.87,83.84,364.18,17.4,-3.21,1.05,53.08,1964.32,-782.63,679.72,-1028.48,-1248.78,1810.4,-1466.4,167.3,1882.68,902.06,-407.75,353.94
2481809,498_1,1.5639,110.26,89.84,34.73,-206.32,112.69,295.53,66.34,373.37,11.85,-2.47,-0.51,61.05,2418.25,-950.03,902.3,-1330.21,-1696.8,2221.64,-1863.44,78.95,2432.39,1125.36,-469.69,464.83
2481810,498_1,1.5667,112.61,87.29,52.24,-204.65,98.94,305.07,49.75,378.48,6.16,-2.65,-2.01,69.23,2855.76,-1102.7,1129.95,-1612.2,-2155.59,2612.35,-2259.84,-36.54,2962.64,1343.17,-526.68,576.3
2481811,498_1,1.5694,112.25,83.6,69.09,-202.66,86.01,311.4,34.43,380.58,0.86,-3.76,-3.38,77.17,3250.22,-1234.29,1344.17,-1859.79,-2587.83,2960.01,-2626.54,-162.35,3440.23,1541.41,-576.44,679.9
2481812,498_1,1.5722,109.91,79.17,84.45,-200.23,74.35,315.42,20.45,380.56,-3.9,-5.67,-4.39,84.52,,,,,,,,,,,,
2481813,498_1,1.575,106.41,74.69,97.79,-197.19,64.01,317.88,7.66,379.05,-8.18,-8.15,-4.74,91.01,,,,,,,,,,,,
2481814,498_1,1.5778,102.45,70.93,108.83,-193.44,54.85,319.27,-4.13,376.47,-12.06,-10.93,-4.11,96.47,,,,,,,,,,,,
2481815,498_1,1.5806,98.58,68.59,117.42,-189.05,46.74,319.85,-15.06,373.14,-15.46,-13.81,-2.32,100.77,,,,,,,,,,,,
2481816,498_1,1.5833,95.18,68.1,123.55,-184.38,39.69,319.7,-25.12,369.45,-18.04,-16.7,0.64,103.83,,,,,,,,,,,,
2481817,498_1,1.5861,92.4,69.55,127.27,-180.13,33.84,318.87,-34.15,365.96,-19.24,-19.63,4.55,105.62,,,,,,,,,,,,
2481818,498_1,1.5889,90.27,72.67,128.74,-177.31,29.39,317.45,-41.84,363.45,-18.4,-22.76,8.98,106.18,,,,,,,,,,,,
2481819,498_1,1.5917,88.6,76.91,128.23,-177.08,26.41,315.65,-47.81,362.85,-14.99,-26.36,13.39,105.65,,,,,,,,,,,,
2481820,498_1,1.5944,87.11,81.53,126.19,-180.52,24.77,313.85,-51.81,365.05,-8.69,-30.73,17.21,104.28,,,,,,,,,,,,
2481821,498_1,1.5972,85.38,85.84,123.19,-188.4,24.1,312.58,-53.94,370.73,0.45,-36.18,19.91,102.45,,,,,,,,,,,,
2481822,498_1,1.6,82.91,89.28,119.95,-200.98,23.96,312.55,-54.79,380.13,12.11,-42.97,21.16,100.62,,,,,,,,,,,,
2481823,498_1,1.6028,79.15,91.64,117.16,-217.91,23.98,314.65,-55.64,393.06,25.89,-51.24,20.81,99.33,,,,,,,,,,,,
2481824,498_1,1.6056,73.57,93.07,115.41,-238.32,24.13,319.9,-58.44,408.82,41.46,-61.01,18.96,99.07,,,,,,,,,,,,
2481825,498_1,1.6083,65.7,94.19,115.05,-261.05,24.8,329.44,-65.6,426.4,58.75,-72.09,15.94,100.28,,,,,,,,,,,,
2481826,498_1,1.6111,55.22,95.97,116.11,-284.89,26.84,344.36,-79.7,444.61,78.05,-84.15,12.23,103.27,,,,,,,,,,,,
2481827,498_1,1.6139,42.0,99.68,118.36,-308.82,31.29,365.5,-102.99,462.24,99.84,-96.68,8.45,108.2,,,,,,,,,,,,
2481828,498_1,1.6167,26.11,106.6,121.31,-332.14,39.15,393.29,-136.92,478.15,124.62,-109.07,5.22,115.02,,,,,,,,,,,,
2481829,498_1,1.6194,7.82,117.86,124.36,-354.36,50.98,427.39,-181.71,491.26,152.55,-120.76,3.12,123.56,,,,,,,,,,,,
2481830,498_1,1.6222,-12.43,134.07,127.0,-375.05,66.72,466.58,-236.1,500.51,183.13,-131.25,2.58,133.48,,,,,,,,,,,,
2481831,498_1,1.625,-34.07,155.14,128.86,-393.57,85.51,508.65,-297.34,504.75,215.02,-140.28,3.86,144.34,,,,,,,,,,,,
2481832,498_1,1.6278,-56.45,180.23,129.88,-408.88,105.88,550.43,-361.35,502.72,246.08,-147.82,7.06,155.68,,,,,,,,,,,,
2481833,498_1,1.6306,-78.86,207.76,130.3,-419.55,125.97,588.07,-423.19,493.11,273.6,-154.08,12.21,167.05,,,,,,,,,,,,
2481834,498_1,1.6333,-100.59,235.73,130.7,-423.91,143.91,617.42,-477.64,474.72,294.79,-159.44,19.3,178.08,,,,,,,,,,,,
2481835,498_1,1.6361,-120.97,262.07,131.91,-420.44,158.07,634.56,-519.84,446.78,307.31,-164.34,28.38,188.5,,,,,,,,,,,,
2481836,498_1,1.6389,-139.43,285.18,134.98,-408.28,167.28,636.4,-545.98,409.24,309.9,-169.15,39.65,198.21,,,,,,,,,,,,
2481837,498_1,1.6417,-155.61,304.29,141.08,-387.69,170.8,621.22,-553.85,363.18,302.78,-174.17,53.43,207.29,,,,,,,,,,,,
2481838,498_1,1.6444,-169.45,319.81,151.45,-360.38,168.17,589.04,-543.12,310.97,287.83,-179.58,70.15,216.02,-2864.63,16399.96,-2344.99,-5982.19,2135.28,19036.46,-7454.56,4227.96,18141.83,-802.75,6846.12,-606.53
2481839,498_1,1.6472,-181.2,333.29,167.34,-329.51,159.04,541.79,-515.5,256.21,268.43,-185.49,90.28,224.9,-2247.37,12827.35,-1789.36,-4570.58,1635.03,14880.18,-5897.49,3225.97,14116.35,-613.06,5425.77,-403.3
2481840,498_1,1.65,-191.43,347.11,189.93,-299.25,143.02,483.14,-474.43,203.39,248.91,-191.97,114.16,234.63,-1662.84,9442.89,-1269.11,-3233.56,1161.63,10943.85,-4422.7,2276.77,10303.33,-438.49,4079.27,-224.89
2481841,498_1,1.6528,-200.86,363.81,220.25,-273.97,119.76,418.02,-424.7,157.14,233.67,-199.08,141.85,246.1,-1142.5,6429.32,-814.55,-2044.23,741.21,7440.39,-3109.43,1432.35,6909.35,-290.11,2878.38,-85.72
2481842,498_1,1.6556,-210.13,385.21,259.11,-257.16,89.13,352.06,-371.78,121.39,226.12,-206.8,172.9,260.32,-707.5,3912.74,-445.48,-1054.06,391.96,4516.79,-2011.72,729.21,4077.66,-174.22,1871.95,6.93
2481843,498_1,1.6583,-219.5,411.61,307.03,-250.36,51.53,290.98,-321.28,98.55,227.64,-214.96,206.18,278.36,-367.04,1951.96,-169.32,-288.34,122.5,2241.68,-1153.91,185.1,1875.95,-91.82,1081.86,53.88
2481844,498_1,1.6611,-228.66,441.1,364.16,-252.43,8.21,240.13,-278.41,88.98,236.89,-223.19,239.7,301.2,-119.38,542.26,18.05,252.9,-67.81,609.56,-532.58,-200.35,300.21,-39.52,504.92,63.09
2481845,498_1,1.6639,-236.53,469.45,430.26,-259.36,-38.69,204.21,-247.7,90.9,249.57,-230.81,270.59,329.62,45.46,-371.04,129.41,589.88,-187.06,-443.26,-122.81,-442.04,-710.15,-11.17,118.61,47.12
2481846,498_1,1.6667,-241.27,490.39,504.72,-264.8,-86.21,187.19,-232.88,100.78,258.89,-236.85,295.27,364.04,142.27,-874.45,182.34,756.02,-247.98,-1017.6,113.82,-564.27,-1251.9,0.26,-111.61,19.92
2481847,498_1,1.6694,-240.44,496.62,586.56,-261.3,-130.95,192.25,-236.84,114.12,256.76,-240.08,309.81,404.43,187.53,-1068.42,195.34,790.69,-265.15,-1230.27,221.29,-595.35,-1437.56,1.26,-225.14,-6.36
2481848,498_1,1.6722,-231.41,481.19,674.38,-241.94,-169.55,221.7,-261.63,126.42,235.35,-239.16,310.47,450.1,197.06,-1052.32,184.74,733.1,-252.5,-1196.54,242.52,-563.02,-1378.36,-3.07,-260.43,-23.53
2481849,498_1,1.675,-211.78,439.08,766.25,-202.16,-199.22,276.69,-308.29,134.14,188.92,-232.87,294.45,499.64,184.61,-913.69,162.82,618.21,-221.71,-1017.55,214.65,-491.49,-1172.29,-9.22,-250.72,-28.34
2481850,498_1,1.6778,-180.01,368.7,859.59,-141.23,-218.05,356.75,-376.6,135.35,115.44,-220.32,260.53,550.88,161.26,-722.01,137.31,474.68,-181.5,-773.3,166.09,-400.03,-897.53,-14.96,-221.54,-21.99
2481851,498_1,1.6806,-135.81,272.91,951.02,-63.06,-225.23,459.33,-464.7,130.1,17.47,-201.17,209.63,600.95,135.42,-526.34,111.99,324.51,-137.81,-520.28,115.58,-302.94,-610.51,-18.91,-189.79,-8.62
2481852,498_1,1.6833,-80.39,159.14,1036.44,24.0,-221.04,579.47,-568.77,120.3,-97.74,-175.78,145.06,646.47,113.07,-356.32,87.92,183.57,-94.3,-292.89,72.83,-210.18,-347.32,-20.14,-164.29,6.63
2481853,498_1,1.6861,-16.46,38.62,1111.36,108.46,-206.74,709.92,-683.1,109.3,-219.34,-145.17,72.19,683.97,97.99,-225.37,64.77,62.36,-53.08,-107.32,40.35,-128.25,-127.08,-18.04,-147.47,19.35
2481854,498_1,1.6889,52.17,-75.38,1171.42,177.94,-184.41,841.82,-800.43,101.0,-334.79,-110.97,-2.19,710.32,91.99,-135.07,41.83,-33.11,-15.15,33.34,16.02,-60.75,43.78,-12.31,-137.52,26.83
2481855,498_1,1.6917,121.03,-170.06,1213.18,221.83,-156.62,965.85,-912.91,98.8,-432.31,-75.2,-70.99,723.29,95.09,-79.67,18.58,-100.57,19.25,133.94,-4.42,-8.86,167.17,-3.15,-130.7,28.29
2481856,498_1,1.6944,185.59,-235.58,1234.77,233.81,-126.2,1073.73,-1013.18,104.33,-503.14,-40.11,-128.1,721.92,105.76,-50.04,-5.12,-140.73,50.46,202.78,-25.31,28.26,249.56,8.71,-123.08,24.44
2481857,498_1,1.6972,241.7,-267.09,1236.3,213.42,-95.91,1159.45,-1095.5,116.61,-543.19,-7.9,-169.38,706.68,121.31,-36.51,-28.96,-156.46,79.05,248.34,-49.64,52.92,299.02,22.04,-111.71,16.81
2481858,498_1,1.7,285.93,-265.57,1219.81,166.17,-68.24,1220.03,-1156.37,131.77,-553.38,19.39,-193.32,679.36,138.41,-30.7,-52.19,-151.9,105.48,277.39,-78.49,68.17,323.13,35.38,-95.08,7.16
2481859,498_1,1.7028,315.72,-237.21,1188.75,102.1,-45.17,1255.5,-1194.69,143.77,-538.88,40.07,-200.98,642.71,153.7,-26.42,-73.65,-131.8,129.7,294.28,-110.94,77.02,328.02,47.27,-73.19,-2.89
2481860,498_1,1.7056,329.62,-191.62,1147.21,33.17,-28.17,1268.21,-1211.24,145.88,-507.53,52.93,-195.38,599.93,164.28,-19.86,-91.92,-100.97,151.08,301.1,-144.6,81.93,318.07,56.6,-47.18,-12.08
2481861,498_1,1.7083,327.36,-139.37,1099.09,-29.63,-18.01,1261.87,-1207.91,132.5,-467.94,57.45,-180.49,554.13,168.16,-9.37,-105.6,-63.87,168.52,298.49,-176.26,84.55,296.32,62.71,-18.95,-19.51
2481862,498_1,1.7111,310.02,-89.66,1047.5,-78.63,-14.74,1240.49,-1186.95,100.66,-427.95,53.86,-160.26,507.95,164.4,4.97,-113.63,-24.51,180.8,286.53,-202.69,85.73,265.12,65.44,9.26,-24.66
2481863,498_1,1.7139,279.98,-48.73,994.54,-110.59,-17.67,1207.81,-1150.42,50.67,-393.63,43.14,-137.86,463.33,153.14,21.87,-115.54,13.63,186.88,265.54,-221.18,85.73,226.69,65.03,35.19,-27.32
2481864,498_1,1.7167,240.7,-19.25,941.42,-126.57,-25.52,1167.06,-1100.07,-14.22,-368.89,26.93,-115.26,421.53,135.41,39.39,-111.54,47.61,186.09,236.67,-229.93,84.31,183.58,61.94,56.82,-27.53
2481865,498_1,1.7194,196.23,-0.63,888.86,-130.82,-36.76,1121.12,-1037.47,-88.95,-355.73,7.28,-93.33,383.16,112.81,55.43,-102.29,75.1,178.05,201.98,-228.23,80.79,138.76,56.68,72.58,-25.5
2481866,498_1,1.7222,150.72,9.98,837.52,-129.12,-50.06,1072.72,-964.24,-167.97,-354.61,-13.68,-72.16,348.45,87.28,68.18,-88.64,94.44,162.44,164.4,-216.29,74.03,95.36,49.67,81.41,-21.53
2481867,498_1,1.725,107.79,16.52,788.27,-127.26,-64.59,1024.61,-882.31,-246.48,-364.91,-33.94,-51.48,317.35,60.78,76.49,-71.25,104.79,138.83,127.38,-195.22,62.38,56.37,41.2,82.98,-15.92
2481868,498_1,1.7278,70.17,22.76,742.25,-129.78,-80.14,979.36,-793.89,-320.95,-385.2,-51.81,-31.14,289.71,35.22,80.07,-50.49,106.18,106.63,94.44,-166.77,43.99,24.26,31.52,77.73,-8.97
2481869,498_1,1.7306,39.5,31.43,700.62,-139.28,-96.95,939.05,-701.4,-389.24,-413.33,-65.97,-11.41,265.32,12.23,79.52,-26.53,99.49,65.48,68.76,-133.26,17.23,0.75,20.86,66.85,-1.03
2481870,498_1,1.7333,16.35,43.65,664.27,-156.13,-115.31,904.77,-607.31,-450.19,-446.41,-75.53,6.93,243.94,-6.84,76.27,0.4,86.27,15.8,52.81,-97.39,-18.54,-13.22,9.53,52.22,7.47
2481871,498_1,1.7361,0.44,58.86,633.49,-178.73,-135.15,876.36,-514.02,-503.11,-480.82,-79.94,22.67,225.3,-21.08,72.16,29.48,68.41,-40.59,47.95,-62.05,-62.33,-17.49,-2.02,36.13,15.96
2481872,498_1,1.7389,-9.06,75.03,607.83,-203.94,-155.74,852.41,-423.84,-547.36,-512.38,-78.98,34.41,209.11,-30.1,69.1,59.09,47.85,-100.03,54.22,-30.04,-110.99,-12.51,-13.2,20.96,23.69
2481873,498_1,1.7417,-13.21,89.3,586.26,-227.81,-175.58,830.67,-339.06,-582.34,-536.77,-72.75,40.91,195.09,-34.08,68.55,86.63,26.28,-156.99,70.06,-3.77,-159.16,0.61,-23.38,8.83,29.81
2481874,498_1,1.7444,-12.93,98.59,567.43,-246.39,-192.55,808.7,-262.01,-607.55,-550.05,-61.58,41.36,183.03,-33.8,71.07,108.75,4.99,-204.58,92.22,15.08,-199.83,20.03,-31.9,1.27,33.48
2481875,498_1,1.7472,-8.86,100.38,550.07,-256.52,-204.16,784.64,-195.09,-623.02,-549.41,-46.07,35.65,172.83,-30.51,75.99,121.91,-15.03,-235.51,115.8,25.89,-225.39,42.96,-38.2,-1.04,33.98
2481876,498_1,1.75,-1.26,93.27,533.43,-256.46,-208.04,757.76,-140.55,-629.58,-533.71,-27.04,24.49,164.56,-25.74,81.14,123.1,-32.87,-243.44,134.36,29.24,-229.1,65.34,-41.85,1.52,30.89
2481877,498_1,1.7528,9.87,77.33,517.47,-246.32,-202.36,728.86,-100.23,-629.04,-503.8,-5.52,9.33,158.5,-20.93,82.7,110.52,-47.42,-224.27,140.35,27.05,-206.51,81.68,-42.6,7.43,24.22
2481878,498_1,1.7556,24.62,54.14,502.95,-227.94,-186.26,700.19,-75.12,-624.22,-462.48,17.27,-7.82,155.03,-17.07,75.31,84.25,-57.09,-177.18,125.57,22.47,-156.76,85.06,-40.4,14.07,14.46
2481879,498_1,1.7583,42.82,26.48,491.28,-204.53,-160.19,675.07,-64.94,-618.63,-414.03,39.87,-24.7,154.6,-14.4,52.23,46.44,-59.71,-105.17,81.76,19.7,-83.21,67.44,-35.36,17.82,2.58
2481880,498_1,1.7611,63.8,-2.15,484.15,-179.83,-125.97,657.26,-67.93,-616.09,-363.44,60.69,-39.14,157.53,-12.14,5.82,1.18,-52.62,-14.85,1.23,23.69,6.73,20.18,-27.72,14.38,-10.17
2481881,498_1,1.7639,86.16,-28.23,483.14,-157.15,-86.7,650.21,-80.78,-620.12,-315.39,78.06,-49.42,163.95,-8.55,-71.72,-46.0,-32.97,84.44,-122.44,39.69,102.53,-65.04,-17.83,-0.85,-22.36
2481882,498_1,1.7667,107.85,-48.87,489.31,-138.6,-46.35,656.3,-98.89,-633.35,-273.41,90.4,-54.46,173.63,-1.21,-187.36,-89.04,1.82,182.03,-293.76,72.64,192.2,-195.15,-6.04,-32.14,-32.63
2481883,498_1,1.7694,126.28,-62.28,502.84,-124.54,-9.27,676.25,-116.86,-656.94,-239.25,96.38,-54.04,185.95,12.51,-345.95,-122.39,53.5,267.82,-514.52,126.38,264.46,-374.43,7.32,-82.71,-39.89
2481884,498_1,1.7722,138.78,-68.05,522.82,-113.6,20.47,708.81,-129.13,-690.27,-212.72,95.23,-48.72,199.92,,,,,,,,,,,,
2481885,498_1,1.775,143.05,-67.16,547.31,-103.08,39.63,750.71,-130.82,-730.76,-191.9,86.82,-39.79,214.25,,,,,,,,,,,,
2481886,498_1,1.7778,137.66,-61.73,573.55,-89.76,46.33,797.03,-118.48,-774.2,-173.71,71.87,-29.01,227.52,,,,,,,,,,,,
2481887,498_1,1.7806,122.43,-54.51,598.3,-70.88,40.27,841.87,-90.62,-815.24,-154.78,51.85,-18.33,238.38,,,,,,,,,,,,
2481888,498_1,1.7833,98.54,-48.28,618.36,-44.93,22.7,879.19,-48.01,-848.26,-132.3,28.88,-9.56,245.72,,,,,,,,,,,,
2481889,498_1,1.7861,68.41,-45.21,631.08,-12.29,-3.95,903.8,6.63,-868.31,-104.76,5.41,-3.99,248.85,,,,,,,,,,,,
2481890,498_1,1.7889,35.24,-46.29,634.78,24.65,-36.61,912.22,69.15,-872.05,-72.43,-16.17,-2.2,247.57,,,,,,,,,,,,
2481891,498_1,1.7917,2.47,-51.16,629.08,61.72,-72.25,903.38,134.97,-858.5,-37.45,-33.88,-3.96,242.23,,,,,,,,,,,,
2481892,498_1,1.7944,-26.83,-58.25,615.0,93.69,-108.34,878.96,199.88,-829.38,-3.35,-46.43,-8.37,233.68,,,,,,,,,,,,
2481893,498_1,1.7972,-50.38,-65.19,594.82,115.21,-143.2,843.21,260.84,-789.04,25.63,-53.45,-14.08,223.07,,,,,,,,,,,,
2481894,498_1,1.8,-66.99,-69.51,571.69,121.8,-176.01,802.31,316.25,-743.75,45.53,-55.33,-19.72,211.77,,,,,,,,,,,,
2481895,498_1,1.8028,-76.51,-69.21,549.07,110.69,-206.56,763.24,365.9,-700.59,53.57,-53.1,-24.13,201.05,,,,,,,,,,,,
2481896,498_1,1.8056,-79.61,-63.28,530.03,81.5,-234.88,732.47,410.46,-666.03,48.84,-48.14,-26.67,191.95,,,,,,,,,,,,
2481897,498_1,1.8083,-77.5,-52.02,516.65,36.48,-260.79,714.61,450.75,-644.6,32.7,-41.8,-27.31,185.08,,,,,,,,,,,,
2481898,498_1,1.8111,-71.52,-36.94,509.53,-19.56,-283.54,711.46,487.09,-637.83,8.71,-35.2,-26.53,180.5,,,,,,,,,,,,
2481899,498_1,1.8139,-62.89,-20.61,507.69,-79.71,-301.71,721.59,518.77,-643.84,-17.85,-29.09,-25.22,177.79,,,,,,,,,,,,
2481900,498_1,1.8167,-52.56,-6.12,508.74,-135.75,-313.36,740.58,543.98,-657.55,-40.67,-23.8,-24.37,176.08,,,,,,,,,,,,
2481901,498_1,1.8194,-41.28,3.38,509.37,-179.17,-316.5,761.86,560.18,-671.52,-53.48,-19.39,-24.85,174.29,,,,,,,,,,,,
2481902,498_1,1.8222,-29.76,5.33,506.02,-202.31,-309.61,777.89,564.68,-677.21,-51.04,-15.77,-27.15,171.32,,,,,,,,,,,,
2481903,498_1,1.825,-18.83,-1.84,495.59,-199.38,-292.26,781.57,555.45,-666.46,-29.97,-12.87,-31.33,166.26,,,,,,,,,,,,
2481904,498_1,1.8278,-9.58,-18.42,476.08,-167.34,-265.32,767.43,531.74,-632.85,10.7,-10.73,-36.92,158.59,,,,,,,,,,,,
2481905,498_1,1.8306,-3.34,-43.4,446.85,-106.37,-231.08,732.51,494.4,-572.82,69.36,-9.5,-43.12,148.23,,,,,,,,,,,,
2481906,498_1,1.8333,-1.46,-74.58,408.82,-19.91,-192.9,676.8,445.96,-486.27,142.09,-9.42,-48.94,135.58,,,,,,,,,,,,
2481907,498_1,1.8361,-5.05,-108.94,364.22,85.65,-154.74,603.13,390.28,-376.67,223.2,-10.7,-53.43,121.4,,,,,,,,,,,,
2481908,498_1,1.8389,-14.71,-143.02,316.21,201.7,-120.6,516.63,332.01,-250.63,305.94,-13.4,-55.86,106.7,,,,,,,,,,,,
2481909,498_1,1.8417,-30.23,-173.43,268.4,318.32,-93.88,423.89,275.95,-117.01,383.33,-17.37,-55.86,92.57,,,,,,,,,,,,
2481910,498_1,1.8444,-50.56,-197.19,224.23,425.44,-76.98,331.88,226.39,14.31,448.91,-22.24,-53.48,79.98,,,,,,,,,,,,
2481911,498_1,1.8472,-73.77,-212.15,186.5,513.93,-70.87,246.93,186.48,133.71,497.37,-27.4,-49.12,69.67,-109.01,1021.81,-1165.13,134.02,1599.55,-2204.17,451.92,2154.93,-1612.56,-70.54,581.62,-167.35
2481912,498_1,1.85,-97.38,-217.13,156.9,576.53,-75.0,173.83,157.81,233.05,524.96,-32.12,-43.48,62.04,-16.54,778.02,-869.87,130.99,1184.26,-1639.82,309.29,1599.0,-1212.2,-10.55,471.06,-116.39
2481913,498_1,1.8528,-118.69,-212.06,135.91,608.64,-87.36,115.3,140.29,306.58,529.8,-35.67,-37.41,57.07,64.14,545.45,-592.7,125.29,801.85,-1110.58,177.26,1083.71,-835.59,40.76,362.64,-63.87
2481914,498_1,1.8556,-135.26,-197.86,122.78,608.58,-104.78,71.88,132.26,351.43,511.85,-37.47,-31.77,54.42,124.51,336.13,-350.65,116.6,478.41,-648.72,64.16,643.02,-505.54,77.4,260.46,-11.82
2481915,498_1,1.8583,-145.31,-176.25,115.8,577.68,-123.42,42.24,130.94,367.62,472.82,-37.14,-27.33,53.44,157.82,158.24,-155.84,104.16,231.52,-276.89,-23.43,300.2,-237.97,94.83,167.11,37.15
2481916,498_1,1.8611,-148.0,-149.57,112.75,519.85,-139.43,23.77,132.99,357.66,415.96,-34.67,-24.68,53.39,160.37,15.52,-14.53,87.04,68.4,-5.68,-81.67,65.46,-40.18,90.85,83.65,79.71
2481917,498_1,1.8639,-143.53,-120.38,111.36,441.04,-149.52,13.31,135.21,325.97,345.66,-30.31,-24.14,53.47,132.59,-92.25,72.58,64.64,-13.74,166.65,-110.25,-63.83,89.24,66.59,10.19,111.91
2481918,498_1,1.8667,-132.96,-91.27,109.71,348.48,-151.5,7.79,135.01,278.16,267.06,-24.61,-25.8,53.07,79.63,-168.14,109.32,37.21,-26.08,252.46,-112.57,-101.12,159.09,26.77,-53.35,129.44
2481919,498_1,1.8694,-117.97,-64.58,106.5,249.89,-144.56,4.65,130.74,220.3,185.6,-18.23,-29.45,51.74,10.84,-216.61,102.91,6.1,14.35,271.52,-95.24,-67.61,183.17,-20.73,-106.54,128.48
2481920,498_1,1.8722,-100.47,-42.27,101.13,152.69,-129.23,2.04,121.75,158.36,106.52,-11.87,-34.64,49.32,-61.73,-242.33,62.99,-26.18,87.23,246.96,-66.87,11.29,177.33,-66.28,-148.1,106.69
2481921,498_1,1.875,-82.25,-25.75,93.65,63.36,-107.17,-1.14,108.23,97.72,34.41,-6.14,-40.75,45.85,-125.74,-249.35,0.75,-56.38,171.73,201.0,-36.32,109.44,156.43,-100.6,-176.09,64.2
2481922,498_1,1.8778,-64.75,-15.89,84.56,-13.11,-80.76,-5.35,90.98,42.75,-27.07,-1.5,-47.06,41.57,-171.27,-241.08,-71.8,-81.14,248.9,151.37,-10.8,203.11,131.92,-117.01,-188.7,4.22
2481923,498_1,1.8806,-48.94,-12.94,74.7,-73.5,-52.59,-10.45,71.16,-3.49,-75.47,1.76,-52.87,36.82,-192.92,-220.63,-142.71,-97.87,303.75,109.02,5.65,273.56,110.39,-113.1,-185.25,-66.91
2481924,498_1,1.8833,-35.35,-16.63,64.99,-116.53,-25.03,-15.79,50.16,-39.46,-109.48,3.52,-57.63,32.02,-190.84,-191.61,-200.95,-105.54,326.65,77.49,12.93,308.72,93.53,-91.4,-167.27,-140.38
2481925,498_1,1.8861,-24.15,-26.19,56.42,-142.7,0.05,-20.21,29.46,-65.12,-128.94,3.78,-60.97,27.55,-170.34,-158.54,-237.52,-105.09,313.96,54.13,14.71,303.87,79.26,-58.7,-138.95,-206.15
2481926,498_1,1.8889,-15.35,-40.45,49.86,-153.93,21.36,-22.21,10.62,-81.67,-134.54,2.63,-62.76,23.79,-140.17,-126.73,-246.52,-99.28,267.92,32.61,17.02,261.35,63.64,-24.3,-106.71,-254.67
2481927,498_1,1.8917,-8.9,-58.03,46.11,-152.97,38.07,-20.15,-4.75,-91.1,-127.58,0.2,-63.14,21.02,-110.12,-101.28,-226.13,-91.62,195.8,6.14,25.99,189.39,42.82,2.24,-77.77,-278.69
2481928,498_1,1.8944,-4.83,-77.5,45.76,-142.72,49.61,-12.58,-15.06,-95.47,-109.67,-3.37,-62.42,19.45,-88.5,-85.62,-179.02,-84.98,108.46,-29.72,45.41,100.26,14.55,13.43,-58.08,-274.67
2481929,498_1,1.8972,-3.28,-97.56,49.2,-125.48,55.31,1.47,-18.8,-96.2,-82.48,-7.9,-61.1,19.17,-80.22,-80.22,-112.17,-80.26,18.53,-75.09,74.94,8.11,-20.95,5.58,-50.52,-243.54
2481930,498_1,1.9,-4.46,-117.21,56.6,-102.48,54.16,22.24,-14.58,-93.5,-47.46,-13.21,-59.73,20.17,-85.78,-82.31,-35.79,-76.16,-61.54,-125.33,109.85,-73.29,-60.79,-20.46,-54.21,-190.51
2481931,498_1,1.9028,-8.57,-135.9,67.91,-73.5,44.66,49.16,-1.21,-86.14,-5.72,-19.08,-58.87,22.38,-101.45,-86.81,38.35,-69.89,-121.32,-172.02,142.3,-132.5,-99.73,-59.46,-65.15,-123.94
2481932,498_1,1.9056,-15.67,-153.47,82.87,-37.13,24.96,80.97,22.23,-71.61,42.05,-25.26,-58.99,25.65,-120.39,-88.1,99.05,-58.7,-153.93,-204.99,163.74,-162.0,-131.02,-103.07,-77.93,-53.66
2481933,498_1,1.9083,-25.6,-170.13,101.04,8.78,-6.75,115.91,56.18,-46.74,95.38,-31.45,-60.38,29.79,-134.51,-81.77,137.79,-41.26,-156.95,-215.03,167.47,-159.08,-147.83,-141.63,-87.49,11.13
2481934,498_1,1.9111,-37.87,-186.17,121.69,66.11,-51.48,151.84,100.25,-8.71,153.65,-37.38,-63.07,34.56,-136.56,-65.58,150.29,-18.19,-132.6,-196.24,150.29,-126.02,-144.85,-166.32,-90.38,63.53
2481935,498_1,1.9139,-51.63,-201.75,143.65,135.45,-108.7,186.32,152.78,43.87,215.57,-42.76,-66.79,39.66,-121.84,-39.56,137.06,8.31,-87.07,-147.63,113.01,-69.39,-119.86,-170.95,-84.97,99.94
2481936,498_1,1.9167,-65.76,-216.63,165.22,215.08,-175.57,216.61,210.41,110.04,278.58,-47.35,-71.0,44.69,-89.25,-5.32,102.88,35.4,-29.17,-73.32,59.71,1.39,-74.48,-153.07,-71.15,120.04
2481937,498_1,1.9194,-78.91,-229.96,184.1,300.43,-246.62,239.68,267.89,185.93,338.54,-50.94,-74.92,49.12,-41.4,34.61,55.27,60.56,31.49,18.28,-3.41,75.75,-14.05,-114.36,-49.8,125.93
2481938,498_1,1.9222,-89.66,-240.29,197.51,384.11,-313.94,252.36,318.32,264.85,389.78,-53.36,-77.67,52.32,16.02,77.36,2.82,82.09,86.04,116.14,-69.43,143.73,53.43,-60.04,-22.36,121.05
2481939,498_1,1.925,-96.66,-245.75,202.49,456.7,-368.1,251.63,353.89,338.11,425.62,-54.46,-78.46,53.58,75.46,119.92,-46.46,99.25,127.59,208.59,-131.75,197.21,118.82,2.17,9.3,109.05
2481940,498_1,1.9278,-98.79,-244.35,196.4,508.25,-399.62,235.17,367.13,396.31,439.47,-54.11,-76.68,52.23,129.03,159.36,-86.21,112.09,151.73,285.18,-184.99,230.61,173.5,63.61,43.04,93.14
2481941,498_1,1.9306,-95.41,-234.43,177.48,530.12,-400.82,201.8,352.36,431.16,426.05,-52.23,-72.1,47.78,169.89,193.03,-112.23,121.27,156.53,338.07,-225.53,241.15,210.62,116.13,76.7,75.79
2481942,498_1,1.9333,-86.46,-215.17,145.41,516.83,-367.61,152.01,307.14,437.13,382.75,-48.81,-64.89,40.06,193.29,218.9,-122.63,127.9,142.35,362.92,-251.78,228.74,225.97,153.34,108.43,58.71
2481943,498_1,1.9361,-72.62,-186.91,101.6,467.44,-300.71,88.13,233.21,412.75,310.53,-43.96,-55.62,29.34,197.1,235.87,-117.73,133.3,111.54,359.12,-264.07,195.84,218.29,171.33,136.91,42.89
2481944,498_1,1.9389,-55.26,-151.37,49.24,386.16,-206.0,14.19,136.58,361.15,214.24,-37.92,-45.18,16.33,181.78,243.74,-99.72,138.6,68.12,329.33,-264.02,147.04,189.21,168.88,161.28,28.69
2481945,498_1,1.9417,-36.35,-111.5,-7.15,281.87,-93.83,-64.45,26.9,289.63,102.2,-31.08,-34.67,2.16,149.87,242.88,-72.19,144.21,17.4,278.66,-253.63,88.47,142.88,147.2,180.76,16.06
2481946,498_1,1.9444,-18.17,-71.17,-62.31,166.73,22.67,-141.89,-84.17,208.45,-14.96,-23.93,-25.17,-11.8,105.34,233.77,-39.38,149.34,-34.67,213.46,-234.49,26.91,85.19,109.39,194.22,4.88
2481947,498_1,1.9472,-2.96,-34.48,-111.08,54.09,129.81,-212.35,-184.76,128.85,-125.93,-17.03,-17.63,-24.18,52.79,216.63,-5.39,151.96,-82.27,140.21,-207.24,-31.27,22.92,59.73,199.85,-4.68
2481948,498_1,1.95,7.43,-5.06,-149.18,-43.82,215.7,-270.88,-264.77,60.99,-220.51,-10.97,-12.68,-33.79,-3.2,191.26,26.6,149.1,-120.64,64.64,-171.67,-80.99,-37.25,3.0,195.33,-11.85
2481949,498_1,1.9528,11.88,14.61,-173.71,-117.93,272.1,-313.83,-317.28,12.09,-291.04,-6.24,-10.54,-39.79,-58.53,157.4,54.67,137.66,-146.7,-8.62,-127.29,-119.08,-89.55,-56.01,178.39,-15.32
2481950,498_1,1.9556,10.14,23.65,-183.47,-163.63,295.45,-338.96,-339.3,-14.81,-333.38,-3.23,-10.95,-41.82,-109.69,115.18,78.17,115.31,-159.44,-76.05,-74.19,-144.47,-129.69,-112.88,147.67,-13.44
2481951,498_1,1.9583,2.82,22.88,-178.8,-181.13,287.04,-345.44,-331.77,-21.05,-347.13,-2.14,-13.28,-39.94,-153.82,65.73,97.49,81.39,-159.87,-134.97,-13.79,-157.98,-155.17,-163.71,103.55,-4.76
2481952,498_1,1.9611,-8.74,14.53,-161.36,-174.78,252.11,-333.59,-298.82,-11.74,-335.09,-2.96,-16.66,-34.58,-188.62,11.62,113.56,37.48,-150.64,-183.33,50.68,-161.85,-165.47,-205.14,48.78,11.55
