velo_id,session_trial,time,elbow_velo_x,elbow_velo_y,elbow_velo_z,rear_hip_velo_x,rear_hip_velo_y,rear_hip_velo_z,rear_knee_velo_x,rear_knee_velo_y,rear_knee_velo_z,shoulder_velo_x,shoulder_velo_y,shoulder_velo_z,wrist_velo_x,wrist_velo_y,wrist_velo_z,pelvis_velo_x,pelvis_velo_y,pelvis_velo_z,glove_elbow_velo_x,glove_elbow_velo_y,glove_elbow_velo_z,lead_hip_velo_x,lead_hip_velo_y,lead_hip_velo_z,lead_knee_velo_x,lead_knee_velo_y,lead_knee_velo_z,glove_shoulder_velo_x,glove_shoulder_velo_y,glove_shoulder_velo_z,glove_wrist_velo_x,glove_wrist_velo_y,glove_wrist_velo_z,torso_velo_x,torso_velo_y,torso_velo_z,torso_pelvis_velo_x,torso_pelvis_velo_y,torso_pelvis_velo_z
2481246,498_1,0.0,-32.76,1068.68,74.18,-59.77,6.86,12.41,-100.42,-43.36,16.65,53.0,-101.09,-22.43,-270.28,-557.63,321.17,11.26,-21.96,7.35,-47.36,-565.21,54.44,-6.52,-19.61,26.87,16.01,0.51,-0.06,-68.81,-49.42,-33.71,132.01,1.41,6.18,11.13,1.66,-13.05,24.63,21.61,22.15
2481247,498_1,0.0028,-49.52,1050.12,75.06,-57.62,-1.11,-11.93,-106.38,-44.54,17.12,39.19,-100.91,-23.36,-329.3,-483.83,270.25,9.64,-13.9,13.49,-40.39,323.14,-38.87,-7.14,-8.97,35.32,4.43,-6.31,0.42,-70.43,-37.03,-10.13,-146.06,-139.14,32.04,18.3,3.27,-1.18,29.76,14.65,15.63
2481248,498_1,0.0055,-61.31,1062.05,77.44,-53.15,-8.66,-29.29,-104.15,-41.23,15.86,31.7,-96.05,-27.2,-329.97,-436.24,236.56,8.55,-5.83,15.49,-39.14,966.82,-109.19,-8.21,0.15,41.6,-4.6,-9.44,0.64,-69.47,-28.75,0.98,-361.19,-228.74,49.24,24.83,3.66,6.81,34.56,6.91,8.85
2481249,498_1,0.0083,-69.21,1055.29,77.86,-46.28,-14.76,-41.67,-95.27,-33.8,12.97,28.57,-86.89,-32.82,-293.32,-393.37,208.21,7.3,1.65,14.73,-42.05,1414.65,-161.23,-9.23,7.72,48.38,-12.36,-9.85,0.66,-66.56,-24.12,2.2,-525.7,-269.44,57.57,30.64,2.95,11.73,38.4,-1.02,2.48
2481250,498_1,0.0111,-74.22,997.35,74.01,-37.32,-18.57,-50.75,-81.65,-23.05,8.75,28.17,-74.23,-39.04,-237.25,-340.62,177.02,5.43,7.87,12.38,-47.57,1715.87,-199.63,-9.72,13.56,57.28,-19.46,-8.41,0.55,-62.49,-23.02,-3.21,-649.92,-268.32,57.99,35.46,1.38,14.1,40.67,-8.33,-2.76
2481251,498_1,0.0139,-77.06,877.93,65.12,-26.98,-19.59,-57.64,-65.26,-10.1,3.63,29.41,-59.29,-44.7,-173.8,-272.9,139.82,2.86,12.24,9.25,-54.25,1910.79,-227.97,-9.33,17.43,68.12,-25.73,-5.83,0.37,-58.08,-25.49,-11.71,-740.86,-236.39,52.4,38.86,-0.77,14.07,40.95,-14.21,-6.15
2481252,498_1,0.0167,-78.22,706.91,51.92,-16.19,-17.81,-62.77,-47.92,3.62,-1.83,31.68,-43.85,-48.87,-109.32,-193.49,97.86,-0.18,14.33,5.79,-60.84,2025.85,-248.28,-7.86,19.12,78.81,-30.49,-2.73,0.16,-54.05,-31.48,-20.02,-802.23,-186.49,43.1,40.37,-3.16,11.67,39.1,-18.01,-7.25
2481253,498_1,0.0194,-78.09,506.91,36.11,-6.01,-13.63,-65.89,-31.27,16.56,-7.01,34.69,-30.04,-50.96,-46.63,-110.18,54.73,-3.18,13.99,2.25,-66.26,2073.43,-261.05,-5.29,18.56,85.99,-32.89,0.4,-0.06,-50.96,-40.54,-25.62,-835.35,-131.08,32.28,39.7,-5.46,7.04,35.31,-19.34,-5.96
2481254,498_1,0.0222,-77.16,304.01,19.71,2.59,-7.78,-66.34,-16.68,27.29,-11.33,38.11,-20.16,-50.71,11.91,-30.54,13.92,-5.6,11.42,-1.16,-69.75,2056.27,-265.76,-1.74,15.91,86.17,-32.24,3.21,-0.24,-49.14,-51.65,-27.1,-840.34,-80.37,21.66,36.8,-7.38,0.62,30.1,-18.13,-2.58
2481255,498_1,0.025,-76.23,120.23,4.53,8.91,-1.12,-63.28,-5.22,34.72,-14.32,41.4,-16.16,-48.27,62.14,41.63,-22.91,-7.03,7.11,-4.19,-70.9,1974.18,-261.69,2.53,11.54,77.0,-28.33,5.64,-0.4,-48.65,-63.3,-24.34,-817.38,-41.26,12.29,32.03,-8.66,-6.74,24.18,-14.69,2.24
2481256,498_1,0.0278,-76.31,-30.17,-8.15,12.65,5.51,-56.13,2.48,38.31,-15.77,43.76,-19.15,-44.11,97.59,106.96,-56.28,-7.26,1.76,-6.49,-69.7,1829.52,-248.57,7.19,5.97,58.13,-21.48,7.9,-0.55,-49.34,-73.73,-18.34,-767.29,-17.04,4.67,26.03,-9.1,-13.94,18.36,-9.58,7.66
2481257,498_1,0.0306,-78.43,-140.31,-17.5,13.89,11.49,-44.83,6.32,38.16,-15.7,44.36,-29.05,-38.92,111.37,168.32,-87.77,-6.32,-3.83,-7.69,-66.48,1628.53,-226.71,11.79,-0.27,31.43,-12.54,10.44,-0.71,-50.84,-81.35,-10.89,-691.31,-7.77,-1.18,19.61,-8.62,-19.86,13.38,-3.52,12.84
2481258,498_1,0.0333,-83.27,-207.65,-22.88,12.98,16.42,-30.01,6.64,34.88,-14.35,42.69,-44.49,-33.5,99.46,227.08,-118.08,-4.36,-8.99,-7.53,-61.83,1378.47,-196.48,15.77,-6.75,0.52,-2.77,13.72,-0.93,-52.64,-85.18,-3.98,-590.5,-11.17,-5.47,13.55,-7.24,-23.6,9.78,2.78,17.11
2481259,498_1,0.0361,-90.8,-231.01,-23.68,10.26,20.17,-12.96,4.08,29.36,-12.08,38.91,-63.02,-28.7,63.8,279.84,-145.46,-1.52,-13.28,-5.95,-56.4,1083.63,-157.84,18.42,-13.2,-30.33,6.36,17.92,-1.21,-54.21,-85.13,0.62,-465.51,-23.64,-8.52,8.36,-5.1,-24.82,7.9,8.76,20.14
2481260,498_1,0.0389,-100.17,-209.46,-19.27,5.87,22.81,4.67,-0.65,22.53,-9.27,33.88,-81.65,-25.28,13.5,317.68,-165.23,2.14,-16.58,-3.07,-50.89,744.07,-110.17,18.93,-19.48,-57.2,13.37,22.76,-1.54,-55.1,-81.95,1.81,-317.55,-41.07,-10.64,4.18,-2.46,-23.71,7.81,14.05,22.02
2481261,498_1,0.0417,-109.85,-143.73,-9.31,-0.29,24.43,21.26,-7.02,15.11,-6.2,29.01,-97.54,-23.81,-36.83,328.56,-171.08,6.64,-18.98,0.84,-46.08,358.9,-52.81,16.53,-25.47,-77.39,16.98,27.38,-1.86,-55.02,-77.02,-0.76,-150.25,-59.36,-12.05,0.84,0.31,-20.96,9.35,18.39,23.15
2481262,498_1,0.0444,-118.15,-38.94,5.84,-8.4,25.09,35.47,-14.71,7.6,-3.08,25.74,-108.69,-24.45,-71.33,302.07,-157.45,12.01,-20.62,5.43,-42.83,-68.18,14.06,10.78,-30.82,-89.65,16.43,30.57,-2.08,-53.94,-71.9,-6.78,28.66,-74.63,-12.85,-2.08,2.86,-17.44,12.12,21.6,24.09
2481263,498_1,0.0472,-123.76,93.23,24.75,-18.38,24.69,46.37,-23.53,0.26,-0.02,25.0,-114.42,-26.93,-78.08,234.57,-122.32,18.05,-21.58,10.35,-42.19,-524.6,88.69,1.81,-35.01,-94.0,11.62,31.11,-2.11,-51.98,-67.87,-15.52,207.07,-83.68,-13.06,-5.02,4.86,-13.89,15.5,23.5,25.23
2481264,498_1,0.05,-126.22,234.34,44.9,-29.62,23.03,53.38,-33.19,-6.67,2.89,26.87,-115.45,-30.47,-53.45,132.58,-68.95,24.27,-21.8,15.16,-45.23,-988.5,167.64,-9.42,-37.33,-91.31,3.29,28.27,-1.9,-49.43,-65.72,-26.15,370.38,-84.58,-12.71,-8.27,6.13,-10.77,18.65,23.93,26.63
2481265,498_1,0.0528,-126.14,361.66,62.91,-40.9,19.91,56.19,-43.17,-12.98,5.56,30.49,-113.62,-34.07,-3.8,12.92,-6.01,29.87,-21.12,19.32,-52.85,-1431.78,246.1,-21.23,-37.16,-82.83,-7.06,22.07,-1.45,-46.62,-65.62,-37.93,504.85,-77.13,-11.9,-11.91,6.72,-8.18,20.65,22.89,27.86
2481266,498_1,0.0556,-124.91,452.27,75.18,-50.55,15.26,54.76,-52.64,-18.33,7.83,34.35,-111.25,-36.75,56.06,-100.67,54.15,33.88,-19.38,22.19,-65.43,-1824.23,318.49,-31.46,-34.16,-69.91,-17.41,13.33,-0.82,-43.87,-67.37,-50.23,600.97,-62.98,-10.88,-15.82,6.85,-6.0,20.67,20.63,28.21
2481267,498_1,0.0583,-124.17,487.57,78.54,-56.92,9.25,49.38,-60.64,-22.36,9.56,36.91,-110.44,-37.87,107.35,-183.44,98.5,35.44,-16.55,23.08,-82.61,-2136.5,378.82,-38.03,-28.42,-53.83,-25.61,3.51,-0.12,-41.37,-70.57,-62.43,655.23,-44.92,-9.92,-19.69,6.92,-4.08,18.09,17.64,26.87
2481268,498_1,0.0611,-125.15,456.53,70.84,-58.84,2.25,40.76,-66.3,-24.81,10.63,37.08,-112.5,-37.32,133.15,-216.21,116.8,34.05,-12.78,21.44,-103.06,-2341.0,420.86,-39.41,-20.5,-35.82,-29.8,-5.75,0.53,-39.18,-74.86,-73.77,669.31,-25.94,-9.27,-23.18,7.33,-2.39,12.77,14.6,23.29
2481269,498_1,0.0639,-128.18,357.43,51.38,-56.07,-5.19,29.96,-69.13,-25.54,10.97,34.66,-117.68,-35.47,123.91,-190.6,104.36,29.75,-8.4,17.04,-124.64,-2412.86,438.49,-35.06,-11.24,-17.06,-28.79,-13.13,1.05,-37.3,-80.05,-83.31,647.39,-8.53,-9.03,-25.99,8.42,-1.06,5.07,12.18,17.41
2481270,498_1,0.0667,-132.57,198.36,21.14,-49.3,-12.42,18.29,-69.11,-24.63,10.6,30.39,-125.32,-33.05,80.66,-111.46,63.37,23.19,-3.82,10.2,-144.78,-2333.01,426.53,-25.57,-1.57,1.14,-22.31,-17.93,1.37,-35.74,-86.03,-90.0,593.04,5.4,-9.11,-27.97,10.33,-0.31,-4.15,10.84,9.75
2481271,498_1,0.0694,-136.92,-3.32,-17.12,-40.0,-18.87,7.03,-66.67,-22.31,9.63,25.61,-134.21,-30.83,14.97,4.36,2.41,15.43,0.56,1.83,-160.95,-2094.58,382.25,-12.54,7.72,17.36,-11.02,-20.25,1.51,-34.6,-92.7,-92.9,507.71,13.94,-9.19,-29.11,12.97,-0.25,-13.75,10.7,1.34
2481272,498_1,0.0722,-139.68,-222.66,-59.04,-29.93,-24.03,-2.73,-62.52,-19.0,8.22,21.83,-143.0,-29.43,-54.59,132.41,-65.8,7.68,4.43,-6.67,-171.33,-1710.17,307.11,1.85,16.04,30.13,3.54,-20.77,1.52,-34.08,-99.81,-91.46,391.94,14.86,-8.78,-29.53,16.08,-0.84,-22.58,11.53,-6.54
2481273,498_1,0.075,-139.74,-430.64,-99.23,-20.65,-27.56,-10.25,-57.42,-15.18,6.59,20.16,-150.51,-29.14,-108.61,247.2,-127.8,1.02,7.61,-13.79,-175.19,-1216.25,208.01,15.28,23.05,38.1,19.2,-20.48,1.46,-34.43,-106.93,-85.66,248.62,6.06,-7.35,-29.43,19.22,-1.81,-29.68,12.86,-12.64
2481274,498_1,0.0778,-136.93,-599.47,-132.26,-13.18,-29.27,-15.17,-52.07,-11.41,4.97,21.01,-155.84,-29.96,-133.38,328.86,-172.88,-3.89,10.0,-18.23,-173.11,-671.55,97.14,25.8,28.48,40.43,33.52,-20.27,1.41,-35.84,-113.47,-76.17,86.76,-13.01,-4.59,-28.99,21.94,-2.86,-34.52,14.12,-16.02
2481275,498_1,0.0806,-132.05,-708.3,-153.79,-7.88,-29.14,-17.48,-46.92,-8.21,3.61,24.11,-158.3,-31.7,-125.53,367.64,-195.53,-6.88,11.56,-19.28,-166.75,-148.58,-9.62,32.19,32.12,37.04,44.19,-20.67,1.4,-38.32,-118.81,-64.22,-76.71,-40.17,-0.6,-28.31,23.82,-3.76,-37.01,14.85,-16.17
2481276,498_1,0.0833,-126.71,-747.42,-161.55,-4.49,-27.38,-17.43,-42.25,-6.03,2.7,28.69,-157.26,-34.2,-92.8,364.92,-196.07,-8.2,12.27,-17.03,-158.46,280.12,-95.79,34.11,33.79,28.82,49.48,-21.76,1.45,-41.69,-122.43,-51.4,-218.65,-70.28,4.04,-27.42,24.52,-4.6,-37.44,14.77,-13.11
2481277,498_1,0.0861,-122.75,-719.24,-155.59,-2.45,-24.42,-15.46,-38.18,-5.18,2.38,33.79,-152.23,-37.34,-50.46,330.37,-179.31,-8.38,12.14,-12.36,-150.61,558.02,-148.02,32.08,33.37,17.6,48.63,-23.17,1.52,-45.55,-124.01,-39.4,-315.19,-96.87,8.46,-26.24,23.86,-5.77,-36.28,13.8,-7.29
2481278,498_1,0.0889,-121.76,-635.73,-137.89,-1.12,-20.88,-12.14,-34.75,-5.74,2.69,38.54,-142.86,-41.09,-15.0,276.99,-151.99,-7.99,11.3,-6.66,-145.08,658.35,-159.7,27.25,30.92,5.79,42.11,-24.28,1.57,-49.38,-123.44,-29.58,-349.24,-114.57,11.77,-24.68,21.84,-7.84,-34.06,12.05,0.5
2481279,498_1,0.0917,-124.63,-513.82,-111.49,-0.04,-17.54,-8.08,-31.9,-7.63,3.61,42.21,-129.2,-45.34,2.05,216.15,-120.21,-7.47,9.97,-1.52,-142.77,591.04,-132.97,21.12,26.76,-4.1,31.52,-24.33,1.57,-52.64,-120.83,-22.71,-317.01,-120.96,13.42,-22.64,18.7,-11.38,-31.19,9.7,9.24
2481280,498_1,0.0944,-131.4,-370.82,-79.61,0.99,-15.14,-3.96,-29.49,-10.52,4.97,44.24,-111.85,-49.81,-2.27,154.69,-87.83,-7.01,8.45,1.7,-143.56,399.26,-78.22,15.11,21.4,-10.03,19.26,-22.68,1.45,-54.84,-116.38,-18.84,-230.58,-116.9,13.33,-20.03,14.85,-16.68,-27.87,7.01,17.86
2481281,498_1,0.0972,-141.29,-221.53,-45.1,1.95,-14.22,-0.42,-27.26,-13.92,6.57,44.18,-91.97,-53.93,-22.38,94.78,-56.24,-6.6,7.08,2.15,-146.45,146.55,-11.11,10.3,15.44,-10.81,7.93,-18.86,1.2,-55.62,-110.28,-17.45,-114.98,-105.44,11.83,-16.86,10.79,-23.58,-24.13,4.26,25.3
2481282,498_1,0.1,-152.93,-77.12,-10.21,2.74,-14.98,1.95,-24.82,-17.26,8.13,41.75,-71.09,-56.96,-47.41,35.71,-25.28,-6.06,6.09,-0.41,-150.12,-101.07,51.92,7.24,9.48,-6.25,-0.33,-12.8,0.81,-54.81,-102.62,-17.74,-0.64,-90.4,9.48,-13.18,7.06,-31.43,-19.88,1.74,30.67
2481283,498_1,0.1028,-164.7,54.67,23.33,3.32,-17.2,2.74,-21.78,-19.98,9.4,36.87,-50.78,-58.21,-65.54,-23.61,5.58,-5.2,5.56,-5.68,-153.4,-291.77,98.08,6.04,4.0,3.01,-4.29,-4.84,0.3,-52.42,-93.28,-19.0,85.95,-75.15,6.96,-9.05,4.09,-39.28,-15.0,-0.24,33.29
2481284,498_1,0.1056,-174.95,168.77,54.1,3.75,-20.26,1.87,-17.93,-21.68,10.19,29.74,-32.25,-57.27,-67.82,-83.08,36.34,-3.93,5.3,-12.97,-155.69,-398.87,121.3,6.43,-0.71,15.74,-3.81,4.16,-0.28,-48.62,-81.96,-20.73,130.15,-62.09,4.85,-4.48,2.15,-46.08,-9.34,-1.31,32.8
2481285,498_1,0.1083,-182.31,261.85,80.85,4.18,-23.31,-0.36,-13.32,-22.22,10.44,20.78,-16.05,-54.22,-50.28,-140.99,66.24,-2.3,4.93,-21.48,-157.05,-424.21,123.35,8.09,-4.58,30.48,0.33,12.98,-0.85,-43.69,-68.33,-22.68,133.18,-52.24,3.47,0.68,1.34,-50.99,-2.76,-1.07,29.2
2481286,498_1,0.1111,-185.87,331.46,102.25,4.74,-25.4,-3.29,-8.35,-21.78,10.22,10.55,-2.08,-49.54,-14.21,-194.76,94.09,-0.46,3.89,-30.41,-158.02,-393.94,112.77,10.71,-7.7,45.82,6.84,20.27,-1.31,-37.93,-52.21,-24.6,111.06,-45.1,2.83,6.69,1.59,-53.52,4.95,0.91,22.87
2481287,498_1,0.1139,-185.3,375.0,116.69,5.47,-25.78,-6.07,-3.62,-20.76,9.74,-0.44,10.04,-43.98,34.45,-241.86,118.7,1.42,1.64,-39.04,-159.24,-347.73,101.84,14.06,-10.28,60.53,14.35,24.81,-1.61,-31.6,-33.83,-26.12,88.47,-38.82,2.64,13.86,2.73,-53.6,14.02,4.91,14.49
2481288,498_1,0.1167,-180.89,388.77,122.03,6.25,-24.05,-7.84,0.28,-19.66,9.23,-11.73,20.58,-38.2,86.1,-280.41,139.09,3.24,-2.11,-46.68,-161.1,-324.22,102.11,17.89,-12.52,73.54,21.71,25.93,-1.69,-24.96,-13.89,-26.81,89.5,-30.87,2.4,22.38,4.47,-51.4,24.59,10.91,4.98
2481289,498_1,0.1194,-173.4,367.49,115.55,6.81,-20.3,-7.87,2.92,-18.91,8.88,-22.95,29.25,-32.67,128.3,-309.02,154.48,5.07,-7.22,-52.53,-163.54,-347.54,120.24,21.75,-14.53,83.83,28.08,23.71,-1.56,-18.31,6.49,-26.47,128.5,-19.06,1.6,32.13,6.49,-47.21,36.6,18.33,-4.62
2481290,498_1,0.1222,-163.91,305.14,94.38,6.83,-15.12,-5.77,4.17,-18.69,8.78,-33.69,35.12,-27.58,146.96,-326.34,164.1,7.07,-13.01,-55.74,-166.04,-419.96,155.65,24.95,-16.21,90.31,32.8,18.96,-1.27,-12.08,25.98,-25.33,204.8,-2.34,-0.13,42.54,8.42,-41.25,49.6,26.04,-13.28
2481291,498_1,0.125,-153.66,197.47,56.43,6.05,-9.46,-1.66,4.22,-18.81,8.83,-43.41,36.99,-23.08,128.49,-330.79,167.12,9.43,-18.3,-55.46,-167.9,-523.57,201.06,26.57,-17.21,91.87,35.26,13.01,-0.9,-6.85,43.16,-24.12,303.48,18.95,-2.93,52.7,9.94,-33.72,62.74,32.49,-20.08
2481292,498_1,0.1278,-143.82,45.67,1.76,4.51,-4.39,3.66,3.53,-18.68,8.77,-51.42,33.86,-19.38,63.05,-320.68,162.81,12.18,-21.8,-51.19,-168.44,-629.04,245.45,25.86,-17.05,87.61,34.93,7.27,-0.54,-3.27,56.7,-23.77,401.55,43.39,-6.83,61.5,10.84,-24.96,74.79,36.11,-24.31
2481293,498_1,0.1306,-135.45,-140.47,-66.25,2.66,-0.81,8.67,2.71,-17.46,8.2,-57.03,25.56,-16.88,-51.52,-294.77,150.83,15.04,-22.44,-43.1,-167.26,-706.91,277.89,22.56,-15.28,77.32,31.46,2.8,-0.24,-1.85,65.51,-24.95,476.5,69.14,-11.73,67.98,11.03,-15.57,84.4,35.85,-25.62
2481294,498_1,0.1333,-129.39,-341.49,-140.44,1.33,0.82,11.37,2.38,-14.37,6.76,-59.72,13.02,-16.01,-206.53,-252.86,131.48,17.41,-19.86,-32.21,-164.32,-736.29,290.59,17.21,-11.75,61.81,24.91,0.13,-0.05,-2.83,68.88,-27.65,513.58,94.72,-17.61,71.63,10.6,-6.52,90.39,31.58,-24.07
2481295,498_1,0.1361,-126.24,-530.4,-210.6,1.53,0.6,9.87,3.01,-8.98,4.24,-59.33,-1.85,-16.9,-381.33,-196.36,105.88,18.48,-14.59,-20.28,-159.92,-708.58,280.21,11.15,-6.79,43.0,15.9,-0.87,0.04,-5.98,66.6,-31.01,509.33,119.54,-24.49,72.56,9.77,0.97,92.06,24.31,-20.11
2481296,498_1,0.1389,-126.24,-677.62,-265.26,4.14,-0.81,3.1,4.8,-1.49,0.74,-56.12,-16.66,-19.18,-545.71,-128.51,75.9,17.42,-7.94,-9.31,-154.6,-626.32,247.47,6.18,-1.22,23.46,5.51,-0.8,0.06,-10.64,59.05,-33.55,470.64,143.81,-32.38,71.43,8.84,5.68,89.39,15.91,-14.41
2481297,498_1,0.1417,-129.25,-757.35,-294.09,9.53,-2.39,-8.66,7.63,7.2,-3.32,-50.69,-29.1,-21.87,-665.53,-54.45,44.1,13.75,-1.68,-1.0,-149.05,-499.41,195.85,3.94,3.78,5.59,-4.93,-0.46,0.06,-15.81,47.11,-33.61,410.77,167.74,-41.08,69.24,8.1,6.72,83.03,8.6,-7.61
2481298,498_1,0.1444,-134.69,-753.48,-290.25,17.38,-3.05,-23.63,11.1,15.73,-7.3,-43.7,-37.54,-23.66,-710.58,18.94,13.52,7.51,2.51,3.77,-144.01,-341.15,130.23,5.4,6.98,-9.2,-14.19,-0.64,0.09,-20.31,31.97,-29.87,344.19,190.38,-49.92,66.88,7.69,3.72,74.13,4.26,-0.11
2481299,498_1,0.1472,-141.64,-663.14,-251.92,26.64,-1.99,-39.01,14.66,22.54,-10.48,-35.64,-41.26,-23.37,-662.27,83.54,-12.6,-0.65,3.46,5.1,-140.17,-165.68,56.07,10.54,7.43,-20.88,-21.42,-1.89,0.17,-23.09,14.81,-21.79,282.19,208.85,-57.64,64.87,7.58,-3.06,63.96,3.9,7.99
2481300,498_1,0.15,-148.94,-497.16,-182.72,35.77,1.03,-51.67,17.65,26.24,-12.21,-26.67,-40.49,-20.49,-518.75,130.9,-31.19,-9.55,0.88,3.89,-138.15,12.78,-20.75,18.33,4.8,-30.45,-26.21,-4.39,0.31,-23.34,-3.47,-9.67,230.44,218.44,-62.45,63.13,7.52,-12.85,53.67,7.42,16.82
2481301,498_1,0.1528,-155.53,-277.55,-90.97,43.08,5.58,-58.88,19.43,25.89,-12.06,-16.61,-36.27,-15.4,-296.05,153.73,-39.81,-17.78,-4.66,1.39,-138.4,179.73,-93.78,27.15,-0.53,-39.09,-28.54,-7.93,0.51,-20.73,-22.41,5.31,188.76,213.73,-62.49,61.05,7.18,-24.58,44.02,13.62,26.49
2481302,498_1,0.1556,-160.7,-33.22,11.86,47.1,10.65,-58.84,19.52,21.04,-9.82,-5.15,-30.13,-9.35,-24.92,147.54,-37.15,-23.93,-11.93,-1.2,-141.14,320.28,-155.94,35.13,-7.59,-47.2,-28.66,-11.96,0.74,-15.51,-42.01,21.44,152.9,190.44,-56.32,57.67,6.2,-37.05,35.34,20.69,36.89
2481303,498_1,0.1583,-164.32,205.06,112.99,46.89,14.96,-50.98,17.69,11.85,-5.57,7.91,-23.78,-4.06,255.28,111.92,-23.24,-26.88,-19.37,-3.07,-146.32,420.08,-200.09,40.65,-15.04,-53.82,-26.93,-15.76,0.96,-8.49,-62.51,36.64,117.23,147.4,-43.56,52.01,4.34,-49.11,27.58,26.66,47.53
2481304,498_1,0.1611,-166.75,409.35,200.27,42.2,17.37,-36.02,14.16,-0.95,0.34,22.36,-18.77,-1.12,504.17,50.9,0.44,-26.01,-25.56,-3.95,-153.71,467.56,-220.18,42.61,-21.6,-56.77,-23.64,-18.59,1.12,-0.97,-84.05,48.79,77.32,87.83,-25.31,43.41,1.52,-59.74,20.56,29.93,57.61
2481305,498_1,0.1639,-168.65,558.06,263.75,33.56,17.15,-15.94,9.6,-16.08,7.32,37.51,-16.13,-1.48,687.49,-27.86,31.23,-21.3,-29.52,-3.98,-162.91,456.88,-212.84,40.59,-26.3,-53.51,-19.01,-19.91,1.2,5.53,-106.33,55.87,31.29,19.2,-4.0,31.81,-2.12,-68.15,14.13,29.65,66.13
2481306,498_1,0.1667,-170.63,637.87,296.66,22.18,14.24,6.22,5.13,-31.82,14.58,52.13,-16.16,-5.16,782.81,-114.46,65.69,-13.32,-30.9,-3.64,-173.56,390.53,-178.77,34.92,-28.7,-42.18,-13.17,-19.48,1.17,9.71,-128.29,56.15,-20.22,-48.44,17.09,17.91,-6.29,-73.82,8.36,25.85,72.08
2481307,498_1,0.1694,-172.98,644.07,295.85,9.78,9.09,26.72,2.0,-46.25,21.22,64.74,-18.36,-11.17,782.55,-198.4,100.05,-3.16,-29.9,-3.47,-185.35,280.24,-123.34,26.48,-28.82,-22.46,-6.33,-17.45,1.04,10.79,-148.06,48.46,-75.19,-105.26,34.72,3.1,-10.59,-76.43,3.54,19.3,74.65
2481308,498_1,0.1722,-175.6,579.98,261.9,-1.69,2.51,41.78,1.35,-57.48,26.41,73.84,-21.69,-17.83,693.93,-269.52,130.56,7.7,-27.11,-3.97,-198.12,145.41,-55.96,16.59,-26.99,4.13,1.14,-14.25,0.85,8.8,-163.17,32.47,-131.5,-144.25,46.61,-10.78,-14.58,-75.89,0.15,11.19,73.29
2481309,498_1,0.175,-178.18,456.58,199.3,-10.46,-4.67,48.24,3.86,-64.03,29.44,78.26,-24.92,-23.34,535.86,-318.61,153.84,17.75,-23.16,-5.45,-211.7,9.09,11.94,6.6,-23.54,34.57,8.5,-10.48,0.62,4.59,-171.01,9.01,-187.34,-162.72,51.87,-21.85,-17.88,-72.24,-1.41,2.75,67.8
2481310,498_1,0.1778,-180.54,292.34,116.73,-15.23,-11.84,44.24,9.61,-65.01,29.92,77.36,-27.14,-26.29,333.69,-337.48,166.98,25.67,-18.44,-7.84,-225.8,-107.23,69.52,-2.38,-18.7,65.01,14.66,-6.74,0.39,-0.43,-169.44,-19.73,-240.76,-162.34,51.01,-28.64,-20.2,-65.61,-0.93,-5.14,58.42
2481311,498_1,0.1806,-195.34,285.87,142.45,30.38,0.99,-5.28,28.89,-18.19,8.14,23.66,-29.16,-51.12,-158.08,-141.96,36.59,-1.68,-17.64,-21.08,-195.73,227.8,106.83,43.51,-9.06,64.29,40.22,2.55,-0.01,-26.97,-62.41,-39.27,91.93,98.43,-26.24,16.24,7.55,-27.27,-15.5,-26.91,-7.69
2481312,498_1,0.1833,-185.93,-53.6,-54.64,-11.37,-25.34,6.56,28.53,-50.33,23.29,60.35,-27.87,-23.86,-104.66,-258.09,154.25,32.3,-6.72,-13.3,-252.93,-227.08,127.3,-15.33,-4.96,110.32,18.34,-0.62,0.01,-6.69,-135.43,-78.47,-327.3,-125.27,37.51,-27.61,-21.23,-44.54,5.16,-18.36,31.18
2481313,498_1,0.1861,-190.46,-176.02,-111.51,-4.02,-31.83,-21.76,39.57,-36.48,17.02,46.1,-27.52,-20.75,-307.27,-151.86,126.15,31.12,0.82,-14.72,-263.87,-227.48,126.7,-19.46,3.95,118.86,14.18,1.78,-0.14,-5.93,-105.45,-99.91,-351.61,-100.14,28.58,-21.15,-19.83,-31.0,9.46,-24.18,15.87
2481314,498_1,0.1889,-197.01,-229.78,-129.49,5.15,-38.26,-50.68,50.02,-20.45,9.76,29.83,-27.82,-18.9,-491.27,-3.21,84.34,27.84,9.66,-14.25,-271.4,-201.4,114.33,-22.45,13.89,115.47,6.24,4.03,-0.28,-2.48,-70.78,-111.16,-358.54,-76.32,20.01,-12.61,-17.15,-16.4,13.57,-29.82,1.36
2481315,498_1,0.1917,-205.26,-199.29,-99.25,14.6,-44.41,-75.39,58.78,-4.25,2.42,12.97,-29.33,-19.95,-661.29,177.25,31.89,23.38,19.43,-11.6,-274.48,-166.38,100.21,-24.43,24.23,99.93,-4.02,6.33,-0.42,2.78,-35.36,-110.44,-347.89,-55.71,12.39,-3.5,-13.24,-1.65,16.96,-35.09,-11.15
2481316,498_1,0.1944,-213.73,-82.01,-18.77,23.07,-49.79,-91.71,65.13,10.1,-4.08,-3.28,-32.09,-24.55,-826.87,369.59,-26.02,18.62,29.28,-7.12,-272.58,-139.98,93.92,-25.2,34.08,73.61,-14.36,8.66,-0.56,8.52,-3.06,-98.06,-322.68,-38.53,5.76,5.11,-8.19,12.21,19.58,-39.35,-20.93
2481317,498_1,0.1972,-219.9,109.76,105.17,29.81,-53.65,-96.84,68.94,20.97,-9.02,-18.03,-35.6,-32.04,-998.59,546.02,-83.25,14.26,37.97,-1.7,-265.91,-132.98,100.19,-24.33,42.41,39.4,-22.31,10.76,-0.68,13.38,23.0,-76.37,-287.3,-23.81,-0.2,12.81,-2.23,24.17,21.85,-41.67,-27.82
2481318,498_1,0.2,-220.74,349.31,256.91,34.6,-55.21,-89.91,70.7,27.43,-11.97,-30.56,-39.08,-40.53,-1183.88,675.43,-134.42,10.78,44.26,3.47,-255.44,-143.3,114.93,-21.48,48.31,1.28,-25.87,12.18,-0.76,16.33,40.79,-49.29,-244.12,-9.53,-6.01,19.71,4.2,33.37,24.52,-41.24,-32.08
2481319,498_1,0.2028,-213.58,598.96,413.66,37.6,-53.84,-72.22,71.36,29.49,-12.95,-40.19,-41.72,-47.37,-1383.42,730.24,-176.88,8.52,47.17,7.29,-242.71,-153.46,123.53,-16.67,51.14,-36.28,-24.07,12.51,-0.77,16.91,49.54,-21.49,-190.62,7.27,-12.29,26.11,10.46,39.19,28.35,-37.74,-34.18
2481320,498_1,0.2056,-196.97,816.47,549.31,39.1,-49.29,-47.04,72.05,28.1,-12.35,-46.12,-43.01,-49.75,-1588.6,693.14,-211.4,7.69,46.3,9.06,-229.46,-133.93,103.32,-10.46,50.63,-69.07,-17.19,11.53,-0.7,15.26,49.51,2.45,-118.99,30.13,-19.61,32.17,15.72,41.38,33.72,-31.58,-34.57
2481321,498_1,0.2083,-171.29,963.93,640.0,39.36,-41.75,-19.02,73.5,24.82,-10.86,-47.38,-42.8,-45.33,-1780.71,561.82,-241.42,8.36,41.85,8.67,-217.24,-52.81,30.5,-3.89,46.89,-93.77,-6.68,9.31,-0.55,11.96,41.79,18.73,-19.52,61.95,-28.22,37.6,19.12,40.13,40.42,-23.83,-33.54
2481322,498_1,0.2111,-138.9,1016.68,669.97,38.39,-31.87,6.77,75.75,21.3,-9.21,-43.12,-41.37,-32.54,-1932.82,350.52,-270.88,10.48,34.52,6.61,-207.08,111.16,-110.23,1.77,40.35,-108.38,5.22,6.27,-0.36,7.77,28.11,24.92,113.16,103.12,-37.75,41.77,19.93,36.04,47.65,-15.93,-31.26
2481323,498_1,0.2139,-103.86,969.53,635.85,36.02,-20.7,25.91,77.96,18.74,-7.94,-32.96,-39.26,-10.9,-2014.5,88.39,-301.59,13.83,25.39,3.76,-199.32,357.41,-317.3,5.35,31.65,-112.34,16.06,3.09,-0.15,3.41,10.75,20.4,273.79,149.57,-46.86,43.93,17.79,30.11,54.29,-9.31,-27.88
2481324,498_1,0.2167,-71.09,837.8,547.62,31.95,-9.48,35.57,78.59,17.56,-7.26,-17.38,-37.12,19.02,-1998.48,-185.04,-331.38,18.04,15.6,1.09,-193.78,659.51,-569.04,6.02,21.56,-106.47,23.64,0.53,0.02,-0.54,-7.41,6.44,443.47,192.16,-53.17,43.58,12.84,23.6,59.38,-4.96,-23.74
2481325,498_1,0.2194,-45.34,652.78,425.88,25.92,0.5,35.0,75.98,17.32,-7.01,2.11,-35.55,55.53,-1867.73,-427.01,-353.97,22.65,6.24,-0.66,-190.0,970.43,-827.45,3.46,10.9,-92.66,26.39,-0.67,0.1,-3.73,-22.94,-13.8,592.2,218.34,-53.56,40.85,5.78,17.81,62.45,-3.21,-19.46
2481326,498_1,0.2222,-30.11,453.31,296.44,17.91,8.13,25.54,68.88,17.0,-6.77,23.17,-35.03,95.95,-1620.88,-600.37,-360.87,27.23,-1.85,-1.2,-187.55,1235.21,-1047.8,-2.17,0.47,-73.5,23.64,0.01,0.07,-5.91,-32.18,-35.81,686.63,216.03,-44.88,36.52,-2.27,13.93,63.72,-3.77,-15.93
2481327,498_1,0.225,-26.87,276.25,184.0,8.22,12.66,10.27,57.01,15.43,-6.08,43.06,-35.86,136.7,-1274.32,-682.04,-344.88,31.42,-8.07,-0.8,-186.29,1405.92,-1190.25,-10.28,-9.04,-51.88,15.55,2.88,-0.12,-6.87,-31.85,-54.58,700.49,177.84,-24.77,31.85,-10.03,12.76,64.06,-5.87,-14.24
2481328,498_1,0.2278,-34.73,148.78,106.85,-2.47,13.84,-6.84,41.28,11.7,-4.56,59.3,-38.15,173.58,-860.81,-668.41,-303.59,34.99,-12.17,-0.15,-186.31,1453.1,-1229.08,-20.03,-17.11,-30.63,3.05,7.94,-0.45,-6.43,-19.93,-65.73,623.85,103.67,7.51,28.22,-16.36,14.59,64.54,-8.57,-15.37
2481329,498_1,0.2306,-203.68,-190.93,-141.93,-15.62,35.69,9.91,16.52,-7.43,3.06,34.26,-25.92,77.95,-324.72,-413.34,7.93,25.94,-38.21,0.96,-210.2,359.6,303.0,-4.29,-45.29,-53.31,5.57,10.98,-0.37,10.41,55.1,-28.11,-205.87,185.89,-25.11,19.58,-24.25,13.42,-49.24,-11.39,12.99
2481330,498_1,0.2333,-71.28,80.11,83.2,-22.3,7.82,-31.29,6.53,-2.82,1.25,75.02,-46.41,217.21,-16.76,-433.31,-168.67,39.46,-14.61,-1.39,-190.75,1166.72,-977.66,-40.25,-28.01,1.46,-29.57,23.02,-1.5,-0.57,36.33,-56.69,264.85,-118.56,101.45,27.78,-22.34,25.81,68.84,-12.7,-27.88
2481331,498_1,0.2361,-92.22,122.57,124.25,-28.76,2.74,-33.68,-7.38,-12.19,4.99,74.17,-51.16,215.12,315.59,-277.92,-99.07,39.93,-14.02,-4.32,-195.04,867.15,-710.43,-48.53,-31.15,9.18,-46.53,31.66,-2.13,4.92,73.69,-38.17,60.71,-240.3,154.92,31.12,-22.2,33.45,72.46,-13.18,-38.5
2481332,498_1,0.2389,-111.07,187.36,178.68,-31.33,-1.74,-29.02,-16.14,-21.21,8.58,68.72,-54.92,192.65,533.07,-141.99,-45.5,38.87,-13.38,-8.75,-200.17,498.67,-376.11,-54.26,-33.52,10.52,-61.92,39.89,-2.77,11.75,109.97,-14.78,-91.38,-352.62,205.46,35.83,-20.82,40.94,75.87,-12.27,-50.47
2481333,498_1,0.2417,-127.02,244.66,223.13,-29.45,-4.07,-19.18,-18.78,-28.43,11.45,60.18,-56.41,148.76,611.92,-48.74,-17.09,36.13,-13.79,-14.22,-205.37,92.63,-1.55,-56.69,-36.1,5.7,-74.37,46.91,-3.36,19.19,139.64,9.25,-139.93,-448.71,247.41,40.63,-19.06,47.16,77.74,-9.74,-62.2
2481334,498_1,0.2444,-141.04,261.99,231.2,-23.35,-2.96,-7.35,-15.62,-32.73,13.15,50.2,-54.48,85.09,546.89,-9.33,-17.64,31.8,-16.33,-20.19,-209.44,-314.25,379.18,-55.44,-40.03,-4.6,-82.73,52.15,-3.86,26.14,158.71,30.57,-41.74,-527.68,275.24,44.16,-17.66,51.15,76.96,-5.28,-72.17
2481335,498_1,0.2472,-155.27,206.96,175.55,-14.13,2.28,2.8,-8.14,-33.63,13.5,40.44,-48.36,6.27,350.33,-23.95,-45.65,26.3,-21.84,-26.21,-210.58,-677.92,722.91,-50.62,-46.45,-19.55,-86.2,55.26,-4.23,31.33,165.6,47.82,232.58,-592.6,282.97,45.26,-17.12,52.18,72.86,1.38,-79.23
2481336,498_1,0.25,-172.02,50.42,30.61,-3.6,11.56,8.12,1.34,-31.43,12.6,32.44,-37.9,-80.46,46.73,-85.28,-95.32,20.34,-30.65,-32.03,-206.37,-949.02,979.6,-42.88,-56.09,-38.34,-84.5,56.18,-4.44,33.63,161.17,61.84,693.38,-646.33,263.14,43.16,-17.59,49.78,65.44,10.34,-82.67
2481337,498_1,0.2528,-192.76,-229.09,-223.28,6.19,23.93,6.81,10.38,-27.12,10.86,27.53,-23.59,-166.25,-334.98,-182.39,-157.79,14.82,-42.36,-37.57,-193.94,-1080.73,1100.67,-33.35,-68.95,-60.12,-78.07,55.0,-4.5,32.34,148.07,74.99,1326.43,-687.17,206.49,37.59,-18.97,43.76,55.29,21.21,-82.22
2481338,498_1,0.2556,-217.47,-639.04,-594.04,13.57,37.66,-1.2,17.14,-21.93,8.77,26.61,-6.52,-241.98,-768.13,-303.38,-222.03,10.52,-55.69,-42.77,-170.72,-1040.94,1051.74,-23.47,-83.94,-83.71,-68.13,51.9,-4.38,27.47,129.51,89.75,2087.47,-707.17,103.42,28.88,-20.92,34.25,43.39,32.99,-77.98
2481339,498_1,0.2583,-244.47,-1165.57,-1071.12,17.84,50.47,-14.45,21.06,-16.95,6.78,29.89,11.79,-299.78,-1231.11,-435.66,-275.26,7.82,-68.58,-47.5,-135.52,-823.86,825.0,-14.64,-98.83,-107.4,-56.62,47.06,-4.07,19.77,108.22,107.21,2899.74,-694.98,-52.01,17.88,-22.97,21.77,30.79,44.04,-70.33
2481340,498_1,0.2611,-270.79,-1768.02,-1620.17,19.65,59.98,-30.58,23.08,-12.61,5.07,36.68,29.54,-334.12,-1705.38,-564.26,-303.41,6.49,-78.53,-51.61,-89.6,-455.82,445.67,-8.0,-110.51,-128.91,-45.91,40.56,-3.57,10.61,85.83,126.18,3658.9,-642.53,-256.09,5.95,-24.61,7.18,18.39,52.42,-59.94
2481341,498_1,0.2639,-293.02,-2378.99,-2182.52,20.92,64.2,-47.1,25.41,-8.62,3.54,45.27,44.91,-342.67,-2170.51,-669.94,-292.86,5.68,-83.13,-54.91,-37.17,8.23,-31.11,-4.08,-115.61,-145.68,-38.47,32.45,-2.85,1.58,62.94,143.28,4249.78,-551.44,-490.33,-5.31,-25.35,-8.36,6.75,56.33,-47.74
2481342,498_1,0.2667,-308.2,-2914.05,-2683.1,24.31,61.94,-61.97,30.81,-4.16,1.86,53.13,56.32,-326.52,-2599.5,-729.69,-234.78,4.12,-80.67,-57.3,15.09,496.37,-532.12,-2.82,-111.38,-155.45,-36.53,22.8,-1.91,-5.89,39.72,154.1,4574.14,-434.17,-720.94,-14.29,-24.76,-23.59,-3.95,54.6,-34.85
2481343,498_1,0.2694,-314.61,-3291.57,-3047.52,32.38,53.12,-73.74,41.59,1.64,-0.31,57.42,62.63,-289.99,-2957.78,-721.05,-132.16,0.52,-70.62,-58.78,59.65,936.36,-983.22,-3.69,-96.48,-156.71,-41.72,11.83,-0.77,-10.98,16.62,154.83,4580.22,-308.2,-905.6,-19.73,-22.55,-37.38,-13.79,47.13,-22.38
2481344,498_1,0.2722,-312.15,-3456.89,-3223.87,46.67,38.81,-81.36,58.72,9.1,-3.1,55.69,63.31,-239.58,-3207.5,-629.26,-6.58,-6.0,-53.81,-59.42,90.2,1272.44,-1326.86,-5.97,-71.52,-148.93,-54.77,0.09,0.51,-13.62,-5.26,143.78,4279.29,-186.82,-1005.62,-20.96,-18.65,-48.91,-22.93,34.89,-11.25
2481345,498_1,0.275,-301.99,-3399.4,-3198.69,67.07,20.96,-83.96,81.33,17.73,-6.35,46.6,58.39,-182.46,-3317.01,-453.23,101.53,-15.54,-32.31,-59.37,103.41,1477.54,-1534.84,-9.08,-39.05,-132.45,-75.44,-11.5,1.81,-14.37,-24.22,122.19,3739.52,-73.29,-997.41,-18.1,-13.28,-57.75,-31.39,19.74,-2.05
2481346,498_1,0.2778,-285.65,-3152.46,-2998.12,91.69,2.01,-80.7,106.84,26.19,-9.56,30.4,48.28,-124.79,-3273.89,-206.96,143.91,-27.32,-8.96,-58.81,99.66,1556.21,-1611.61,-12.8,-3.12,-108.25,-102.43,-21.73,2.96,-14.16,-38.5,94.08,3061.48,37.78,-878.11,-11.98,-6.94,-63.9,-39.02,3.93,5.01
2481347,498_1,0.2805,-264.03,-2776.85,-2673.79,117.23,-15.55,-70.95,131.61,32.81,-12.1,8.95,33.59,-70.66,-3097.59,84.04,83.79,-39.83,13.2,-57.85,82.45,1536.94,-1586.45,-17.32,31.57,-77.87,-133.65,-29.28,3.79,-13.85,-46.86,65.18,2349.25,153.73,-665.1,-3.97,-0.38,-67.54,-45.4,-10.39,9.95
2481348,498_1,0.2833,-236.79,-2338.01,-2282.75,139.81,-29.56,-54.79,151.83,36.2,-13.46,-14.66,15.11,-21.84,-2845.95,388.17,-87.74,-51.19,31.51,-56.5,57.04,1457.11,-1498.14,-23.13,60.62,-43.31,-166.51,-33.04,4.13,-13.96,-49.04,41.28,1688.95,276.34,-391.73,4.38,5.51,-68.9,-49.99,-21.61,12.95
2481349,498_1,0.2861,-202.6,-1888.45,-1871.62,155.83,-38.41,-33.41,164.48,35.83,-13.41,-36.8,-6.11,21.56,-2610.86,672.46,-349.03,-59.58,44.06,-54.62,28.87,1348.11,-1379.62,-30.77,80.65,-7.13,-198.31,-32.41,3.87,-14.5,-45.78,26.4,1138.38,397.37,-101.24,11.64,9.92,-68.07,-52.23,-28.83,14.21
2481350,498_1,0.2889,-160.06,-1459.6,-1469.17,162.83,-41.21,-9.32,167.88,32.3,-12.15,-54.13,-28.58,60.11,-2503.26,906.24,-660.17,-63.68,49.9,-51.98,2.3,1226.99,-1249.26,-40.57,89.84,27.7,-226.62,-27.46,2.97,-15.04,-38.44,21.67,725.56,499.1,161.04,16.77,12.27,-65.04,-51.72,-31.81,13.96
2481351,498_1,0.2917,-108.8,-1061.34,-1085.79,159.89,-37.82,14.03,161.97,27.14,-10.19,-64.26,-50.35,94.33,-2631.96,1064.83,-981.52,-62.94,49.02,-48.38,-19.88,1096.8,-1110.95,-52.39,88.02,58.07,-249.54,-18.94,1.52,-14.89,-28.63,25.21,452.36,559.89,357.0,19.29,12.35,-59.88,-48.4,-30.8,12.43
2481352,498_1,0.2944,-50.16,-685.56,-716.33,147.72,-28.83,32.92,148.02,22.27,-8.23,-66.23,-69.17,124.45,-3081.29,1133.55,-1287.81,-57.62,42.2,-43.8,-36.37,952.83,-960.32,-65.65,76.48,81.13,-265.89,-8.1,-0.35,-13.34,-17.71,33.09,300.2,562.14,464.51,19.2,10.36,-52.85,-42.58,-26.38,9.95
2481353,498_1,0.2972,12.81,-311.52,-344.6,128.32,-15.49,44.3,128.28,19.34,-6.85,-60.62,-82.84,150.64,-3890.67,1111.1,-1572.13,-48.65,30.82,-38.57,-46.91,789.81,-792.01,-79.46,57.6,94.87,-275.32,3.55,-2.43,-9.85,-6.63,41.03,235.84,499.13,482.69,16.93,6.86,-44.65,-34.87,-19.29,6.9
2481354,498_1,0.3,76.09,87.58,51.06,104.43,0.41,46.46,105.43,19.22,-6.37,-49.29,-89.58,173.5,-5037.79,1011.7,-1839.59,-37.36,16.59,-33.38,-51.77,606.19,-604.07,-92.9,34.37,98.53,-278.42,14.56,-4.49,-4.08,4.1,46.1,216.05,377.73,431.59,13.2,2.55,-36.34,-26.04,-10.38,3.67
2481355,498_1,0.3028,135.67,536.84,490.84,79.03,16.72,39.41,82.13,21.72,-6.78,-34.85,-88.41,194.3,-6426.99,865.23,-2094.57,-25.21,1.35,-29.14,-51.32,404.33,-398.44,-105.27,9.91,92.77,-276.66,23.81,-6.34,4.12,14.31,47.8,191.06,216.68,346.42,8.86,-1.88,-29.18,-16.86,-0.7,0.62
2481356,498_1,0.3056,188.33,1050.89,985.44,54.82,31.17,24.86,60.71,25.77,-7.76,-20.08,-79.27,214.69,-7887.57,714.51,-2327.29,-13.61,-13.07,-26.75,-45.99,188.28,-178.82,-116.26,-12.82,79.55,-272.32,30.6,-7.83,14.85,24.0,48.13,107.53,41.77,268.35,4.8,-5.94,-24.33,-8.02,8.56,-1.95
2481357,498_1,0.3083,231.96,1625.3,1528.28,34.08,41.69,5.81,42.98,29.78,-8.83,-7.35,-63.02,235.96,-9190.08,607.95,-2505.84,-3.74,-25.01,-26.79,-36.3,-38.6,51.59,-125.89,-31.31,61.64,-268.04,34.65,-8.84,28.15,33.25,50.58,-87.3,-119.46,234.8,1.79,-9.41,-22.63,-0.11,16.11,-3.81
2481358,498_1,0.3111,265.39,2230.36,2090.07,18.47,46.66,-13.99,30.15,32.15,-9.47,1.66,-41.32,258.08,-10090.03,586.28,-2580.67,3.46,-33.14,-29.38,-23.08,-274.88,291.3,-134.42,-43.67,41.89,-266.36,35.97,-9.27,43.96,42.07,58.54,-439.13,-241.89,271.0,0.36,-12.26,-24.34,6.35,20.71,-4.78
2481359,498_1,0.3139,287.99,2810.15,2618.4,9.04,45.15,-30.69,22.85,31.67,-9.32,6.08,-16.29,278.98,-10396.56,665.87,-2503.7,7.34,-36.52,-34.19,-7.5,-520.6,540.06,-142.1,-48.73,22.41,-269.12,34.64,-9.01,61.96,50.16,73.73,-977.37,-305.38,384.01,0.68,-14.56,-29.18,10.8,21.44,-4.81
2481360,498_1,0.3167,299.28,3289.9,3045.27,6.28,37.06,-41.14,21.15,27.81,-8.2,5.72,9.8,294.64,-10038.42,827.92,-2254.06,7.57,-34.8,-40.62,9.09,-775.41,797.07,-148.96,-46.13,3.99,-277.06,30.67,-7.9,81.47,56.68,95.21,-1703.9,-295.81,559.59,2.5,-16.34,-36.45,12.64,17.94,-4.03
2481361,498_1,0.3194,298.96,3592.78,3302.78,10.15,23.15,-43.4,24.69,20.75,-6.16,0.78,34.92,299.94,-9086.26,1023.16,-1853.41,4.1,-28.22,-48.02,25.66,-1035.59,1058.09,-154.74,-36.36,-13.97,-289.73,23.94,-5.78,101.37,60.1,119.45,-2581.86,-205.31,762.76,5.22,-17.57,-45.16,11.23,10.48,-2.73
2481362,498_1,0.3222,287.07,3662.33,3343.6,20.19,4.92,-37.17,32.76,11.27,-3.41,-8.33,57.61,290.12,-7716.15,1190.74,-1360.79,-2.87,-17.67,-55.88,41.86,-1290.74,1312.22,-158.89,-20.78,-33.0,-305.66,14.38,-2.53,120.14,58.25,141.24,-3528.08,-32.31,943.15,7.99,-18.2,-54.39,6.01,0.02,-1.35
2481363,498_1,0.325,264.39,3481.57,3157.28,35.59,-15.55,-23.75,44.45,0.51,-0.3,-21.16,77.16,262.32,-6141.45,1279.31,-852.48,-12.93,-4.61,-63.9,58.29,-1521.41,1539.75,-160.69,-1.5,-54.69,-322.86,2.2,1.84,136.03,48.75,155.17,-4414.52,217.79,1046.25,9.91,-18.2,-63.37,-3.42,-12.01,-0.33
2481364,498_1,0.3278,232.6,3079.11,2774.39,55.16,-35.84,-5.67,58.63,-10.25,2.78,-37.14,93.55,216.59,-4553.83,1259.42,-400.57,-25.51,9.13,-71.97,76.1,-1699.87,1713.1,-159.54,18.82,-79.68,-339.32,-11.88,7.08,147.27,29.76,157.0,-5085.44,530.58,1029.97,10.2,-17.66,-71.68,-17.09,-23.9,0.02
2481365,498_1,0.3305,7.88,918.29,727.86,58.01,5.86,19.1,49.48,3.71,-1.05,-88.57,75.21,-68.78,-574.74,237.35,24.58,-21.54,-12.06,-88.02,206.33,-659.7,-646.65,-186.27,-14.2,-166.44,-416.0,-29.39,12.74,67.68,68.14,154.99,-293.47,139.13,-73.29,-12.84,-9.45,-91.85,38.5,-9.51,-6.03
2481366,498_1,0.3333,152.61,1884.79,1678.6,100.69,-66.72,32.4,89.18,-27.61,7.66,-75.02,118.63,87.19,-1843.77,897.58,150.24,-55.02,31.17,-88.14,118.39,-1785.14,1785.25,-147.8,51.72,-134.23,-364.54,-39.98,17.86,150.36,-35.88,118.09,-5252.69,1224.14,627.95,4.43,-15.84,-86.09,-54.78,-40.85,-1.28
2481367,498_1,0.3361,110.9,1254.04,1111.38,123.0,-74.11,47.46,102.43,-33.05,9.12,-94.31,128.15,17.07,-842.2,609.08,227.27,-70.11,36.68,-96.05,140.91,-1662.73,1656.97,-138.24,60.15,-157.47,-372.42,-50.34,21.9,141.17,-76.45,79.52,-4669.62,1513.98,324.45,-1.26,-15.02,-92.46,-76.31,-43.71,-2.47
2481368,498_1,0.3389,72.11,691.0,610.13,142.44,-75.43,58.25,112.04,-36.24,9.91,-111.66,135.67,-46.43,-91.24,308.61,201.71,-84.18,37.78,-103.58,160.93,-1445.84,1435.69,-127.67,62.07,-172.89,-377.63,-56.06,24.08,125.65,-114.71,32.04,-3754.67,1699.61,36.43,-7.87,-14.41,-98.37,-97.37,-42.36,-3.65
2481369,498_1,0.3417,38.5,237.19,209.57,157.27,-71.21,64.95,116.33,-37.52,10.14,-125.45,140.73,-96.86,429.72,46.9,117.24,-96.4,34.76,-110.4,175.71,-1171.93,1158.71,-117.48,57.98,-177.48,-380.96,-56.34,24.01,105.56,-144.04,-20.53,-2682.02,1747.69,-185.06,-14.38,-13.99,-103.59,-116.1,-37.14,-4.75
2481370,498_1,0.3444,11.52,-88.65,-75.93,166.11,-62.53,68.51,114.04,-37.32,9.95,-134.47,142.76,-130.07,756.7,-132.89,20.26,-106.11,28.36,-116.15,183.77,-887.17,871.36,-109.0,49.09,-169.93,-383.15,-51.33,21.69,83.24,-158.8,-74.09,-1635.03,1651.65,-315.2,-19.78,-13.64,-107.63,-130.88,-28.77,-5.91
2481371,498_1,0.3472,-8.17,-287.48,-249.07,168.1,-50.59,70.25,104.67,-36.04,9.46,-138.06,141.33,-144.76,935.17,-204.7,-51.53,-112.78,19.46,-120.44,185.57,-633.09,613.97,-103.32,36.97,-151.01,-384.72,-42.08,17.55,61.13,-155.75,-124.41,-758.59,1433.07,-355.18,-23.32,-13.23,-109.84,-140.5,-18.09,-7.4
2481372,498_1,0.35,-20.47,-375.47,-325.29,163.05,-36.45,71.41,88.66,-33.9,8.76,-136.3,136.43,-142.36,1014.34,-165.1,-76.53,-116.04,8.86,-122.86,183.36,-436.87,412.73,-101.25,23.05,-123.43,-385.91,-30.29,12.32,41.33,-134.8,-167.44,-133.99,1133.95,-324.31,-24.74,-12.7,-109.63,-144.36,-5.94,-9.42
2481373,498_1,0.3528,-25.62,-379.63,-328.64,151.53,-20.85,72.94,67.49,-31.02,7.89,-129.87,128.58,-126.54,1040.52,-33.82,-51.14,-115.72,-2.81,-123.02,180.38,-308.3,276.97,-103.17,8.47,-91.22,-386.76,-17.91,6.9,25.21,-98.99,-199.9,223.36,804.51,-250.1,-24.27,-12.1,-106.71,-142.59,6.93,-11.89
2481374,498_1,0.3555,-24.12,-333.97,-288.37,134.88,-4.31,75.4,43.44,-27.41,6.86,-119.93,118.84,-102.4,1049.95,150.79,13.17,-111.96,-15.04,-120.62,179.81,-242.58,202.08,-109.04,-6.03,-58.86,-387.29,-6.69,2.09,13.32,-53.69,-219.74,350.01,491.23,-159.72,-22.57,-11.51,-101.29,-136.01,19.86,-14.31
2481375,498_1,0.3583,-16.52,-275.44,-235.54,115.03,12.71,78.86,19.14,-23.07,5.69,-107.91,108.6,-75.61,1063.49,339.94,95.81,-105.24,-27.33,-115.55,183.84,-226.17,175.12,-118.42,-19.93,-30.35,-387.62,2.11,-1.52,5.41,-5.27,-226.4,312.99,228.44,-74.49,-20.53,-10.99,-94.16,-126.05,32.27,-15.78
2481376,498_1,0.3611,-3.53,-238.6,-198.73,94.21,29.69,82.94,-2.93,-18.06,4.38,-95.26,99.35,-51.4,1085.36,484.9,174.13,-96.39,-39.13,-107.96,193.07,-242.48,180.4,-130.5,-32.81,-8.48,-388.06,7.94,-3.73,0.67,40.25,-220.73,187.6,34.47,-7.48,-19.06,-10.46,-86.54,-114.5,43.74,-15.25
2481377,498_1,0.3639,14.0,-249.14,-199.03,74.62,45.94,86.75,-20.77,-12.51,2.96,-83.3,92.31,-33.75,1107.04,547.45,229.61,-86.47,-49.84,-98.3,206.43,-275.5,202.94,-144.26,-44.28,5.73,-389.02,10.99,-4.78,-1.92,78.34,-204.76,39.52,-88.14,36.31,-18.86,-9.68,-79.88,-103.18,54.04,-11.75
2481378,498_1,0.3667,34.95,-317.92,-245.43,58.07,60.64,89.05,-33.2,-6.65,1.48,-73.04,88.19,-24.72,1114.78,508.28,251.89,-76.55,-58.9,-87.42,221.43,-311.09,229.89,-158.6,-53.86,13.2,-390.9,12.06,-5.28,-3.27,106.59,-181.24,-86.22,-149.66,58.36,-20.31,-8.28,-75.58,-93.61,63.14,-4.73
2481379,498_1,0.3694,57.87,-438.09,-332.8,45.75,72.88,88.51,-39.86,-0.91,0.04,-65.22,87.04,-24.22,1097.42,370.97,239.97,-67.59,-65.88,-76.42,234.79,-337.27,250.79,-172.54,-61.11,16.54,-394.03,12.46,-6.18,-3.88,124.77,-153.24,-168.56,-168.45,64.27,-23.45,-5.93,-74.61,-86.82,71.13,5.64
2481380,498_1,0.3722,80.96,-586.91,-443.45,38.21,81.84,84.07,-41.11,4.1,-1.2,-60.26,88.3,-30.29,1051.19,160.61,200.61,-60.28,-70.5,-66.6,243.15,-344.55,257.73,-185.24,-65.61,19.44,-398.58,13.67,-8.59,-3.8,134.48,-123.8,-207.13,-165.47,61.24,-27.92,-2.42,-77.32,-83.19,78.13,18.41
2481381,498_1,0.375,102.17,-732.23,-552.39,35.41,86.85,75.36,-37.9,7.53,-2.04,-58.4,91.01,-39.84,980.25,-82.45,145.14,-55.12,-72.71,-59.14,243.95,-326.91,245.93,-196.16,-67.16,25.69,-404.54,17.03,-13.51,-2.62,138.49,-95.65,-214.72,-159.12,55.9,-33.08,2.11,-83.17,-82.57,84.14,31.82
2481382,498_1,0.3778,119.43,-841.38,-634.39,36.88,87.54,63.0,-31.55,8.47,-2.25,-59.67,94.03,-49.6,893.62,-311.98,85.61,-52.39,-72.59,-54.93,236.0,-282.59,214.2,-204.99,-65.8,38.01,-411.78,23.49,-21.61,0.28,140.11,-71.02,-208.73,-161.39,52.83,-38.13,7.21,-90.73,-84.42,88.94,43.55
2481383,498_1,0.3806,131.03,-889.72,-670.56,41.92,83.87,48.56,-23.5,6.06,-1.6,-63.96,96.39,-56.91,801.07,-486.01,31.89,-52.24,-70.34,-54.33,219.89,-214.36,164.83,-211.7,-61.88,57.25,-420.07,33.27,-32.93,5.47,142.54,-51.57,-204.27,-176.06,53.9,-42.26,12.19,-97.82,-88.09,92.07,51.02
2481384,498_1,0.3833,136.05,-866.29,-652.68,49.59,76.09,34.3,-15.22,-0.2,0.02,-70.88,97.37,-60.32,709.94,-575.45,-10.06,-54.68,-66.17,-57.11,197.85,-128.83,102.98,-216.53,-56.01,81.84,-429.13,45.72,-46.72,13.23,148.32,-38.25,-210.26,-199.17,58.39,-44.82,16.28,-101.86,-92.92,92.98,51.87
2481385,498_1,0.3861,134.75,-775.21,-584.03,58.85,64.75,22.6,-7.98,-10.26,2.61,-79.79,96.68,-59.67,624.15,-569.34,-38.29,-59.51,-60.27,-62.57,173.39,-35.48,35.72,-220.04,-48.88,107.85,-438.66,59.26,-61.29,23.31,158.77,-31.21,-228.43,-221.09,63.76,-45.51,18.87,-100.47,-98.39,91.18,44.42
2481386,498_1,0.3889,128.7,-632.91,-477.21,68.53,50.65,15.4,-2.75,-23.4,5.99,-89.79,94.43,-55.85,545.13,-475.93,-53.96,-66.24,-52.83,-69.74,150.57,54.71,-29.0,-222.97,-41.2,129.68,-448.36,71.51,-74.13,35.06,173.66,-29.62,-254.47,-229.73,66.66,-44.38,19.7,-92.09,-104.06,86.45,28.06
2481387,498_1,0.3917,120.63,-462.43,-349.71,77.48,34.78,13.78,-0.06,-38.27,9.81,-99.81,91.04,-50.28,473.82,-319.44,-59.94,-74.07,-44.11,-77.62,133.24,130.99,-83.59,-226.15,-33.54,141.14,-457.87,79.68,-82.27,47.48,191.14,-31.62,-280.31,-214.04,64.01,-41.78,18.92,-76.47,-109.53,79.0,3.53
2481388,498_1,0.3944,113.83,-287.06,-219.08,84.69,18.34,17.76,0.08,-53.1,13.62,-108.78,87.17,-44.37,412.25,-133.61,-59.45,-82.04,-34.51,-85.39,124.4,185.04,-122.19,-230.29,-26.34,137.08,-466.85,81.2,-82.87,59.64,208.07,-34.43,-296.82,-167.14,53.88,-38.22,17.01,-54.8,-114.33,69.52,-27.08
2481389,498_1,0.3972,111.49,-125.37,-99.27,89.45,2.74,26.39,-1.84,-66.03,16.94,-115.75,83.55,-39.04,363.95,46.49,-55.16,-89.11,-24.64,-92.54,125.79,213.02,-142.06,-235.8,-19.94,114.94,-474.94,74.44,-74.05,70.82,220.89,-34.88,-296.47,-88.52,36.03,-34.18,14.58,-29.54,-117.84,59.08,-60.72
2481390,498_1,0.4,115.88,10.96,1.01,91.37,-10.54,37.88,-4.98,-75.38,19.35,-120.02,80.81,-34.53,332.98,192.02,-48.85,-94.29,-15.36,-98.89,137.84,216.84,-144.21,-242.73,-14.64,75.83,-481.76,59.29,-55.56,80.68,226.59,-30.11,-275.42,15.28,11.98,-29.96,12.13,-3.87,-119.35,48.91,-93.91
2481391,498_1,0.4028,127.93,116.78,77.99,90.26,-20.08,49.9,-8.46,-79.98,20.53,-121.1,79.38,-30.4,322.0,285.68,-41.47,-96.75,-7.69,-104.51,159.83,203.95,-133.3,-250.82,-10.72,24.73,-486.8,37.32,-29.05,89.07,223.68,-18.32,-234.76,131.59,-15.29,-25.69,9.92,19.08,-118.07,40.26,-123.38
2481392,498_1,0.4055,147.11,191.73,131.45,85.98,-24.74,59.88,-11.62,-79.29,20.35,-118.77,79.34,-25.73,330.56,323.2,-33.48,-95.81,-2.64,-109.67,190.11,185.46,-116.4,-259.67,-8.38,-30.63,-489.46,11.5,2.22,95.84,212.71,0.6,-180.43,244.04,-42.0,-21.43,7.93,36.75,-113.29,34.1,-146.68
2481393,498_1,0.4083,171.63,238.56,163.48,78.35,-23.94,65.45,-14.21,-73.45,18.85,-113.06,80.4,-19.54,354.45,311.3,-25.11,-91.04,-0.98,-114.69,226.44,172.97,-101.01,-268.91,-7.69,-81.59,-489.03,-14.59,34.11,100.55,196.13,24.88,-121.97,335.57,-64.35,-17.33,5.91,47.62,-104.66,31.02,-162.46
2481394,498_1,0.4111,198.94,262.21,177.65,67.21,-17.87,64.87,-16.35,-63.26,16.23,-104.26,82.07,-11.11,386.16,263.34,-16.53,-82.3,-3.04,-119.87,266.0,175.0,-93.0,-278.29,-8.49,-120.77,-484.83,-37.59,62.59,102.48,177.6,51.13,-70.3,391.53,-79.18,-13.71,3.56,51.3,-92.34,31.09,-170.55
2481395,498_1,0.4139,226.2,269.49,178.71,52.67,-7.52,57.53,-18.33,-49.97,12.81,-93.03,83.82,-0.3,416.47,194.49,-7.87,-69.97,-8.5,-125.42,305.56,194.01,-94.87,-287.67,-10.37,-143.75,-476.42,-55.07,84.62,100.84,160.86,75.1,-35.16,402.03,-84.39,-11.06,0.64,48.31,-77.2,33.87,-171.73
2481396,498_1,0.4167,250.77,268.54,172.21,35.39,5.43,44.03,-20.31,-35.14,9.0,-80.34,85.29,12.29,436.33,117.96,0.8,-54.95,-16.4,-131.44,341.6,224.95,-105.0,-296.83,-12.64,-149.66,-463.68,-65.88,98.59,95.1,148.65,92.56,-22.76,363.69,-79.29,-9.94,-2.89,39.83,-60.74,38.44,-167.45
2481397,498_1,0.4194,270.61,267.49,163.66,16.69,18.95,26.07,-22.14,-20.36,5.19,-67.4,86.5,25.39,438.55,43.16,9.46,-38.75,-25.31,-137.99,370.67,256.02,-118.11,-305.39,-14.51,-140.75,-446.91,-70.09,104.39,85.38,142.0,100.37,-34.07,280.69,-64.72,-10.75,-6.87,27.31,-44.92,43.66,-159.44
2481398,498_1,0.4222,284.59,272.58,157.47,-1.49,31.05,5.95,-23.29,-7.04,1.75,-55.52,87.88,37.32,418.94,-24.49,18.16,-23.16,-33.69,-145.09,390.01,271.63,-126.79,-312.71,-15.21,-121.16,-426.79,-68.71,103.1,72.61,140.04,97.14,-64.18,165.16,-43.09,-13.55,-10.95,12.15,-31.66,48.43,-149.47
2481399,498_1,0.425,292.6,286.28,155.82,-17.02,40.19,-13.98,-22.99,3.77,-1.04,-45.81,90.28,46.41,376.86,-82.62,26.86,-10.02,-40.22,-152.88,398.14,257.14,-123.94,-317.91,-14.1,-95.59,-404.19,-63.27,96.61,58.45,140.51,83.66,-102.89,36.39,-18.19,-17.98,-14.72,-4.43,-22.44,51.95,-139.12
2481400,498_1,0.4278,295.47,306.24,158.23,-27.97,45.53,-31.81,-20.52,11.42,-3.02,-39.07,94.77,51.52,315.12,-130.65,35.42,-0.74,-44.08,-161.55,395.37,204.09,-105.23,-320.1,-10.82,-68.33,-380.2,-55.51,87.25,44.98,140.61,62.77,-136.72,-81.68,5.31,-23.27,-17.78,-21.5,-17.92,53.9,-129.69
2481401,498_1,0.4306,294.66,325.66,161.81,-33.05,46.93,-46.28,-15.41,15.67,-4.12,-35.57,102.47,52.37,239.63,-168.76,43.5,3.93,-45.09,-171.33,383.75,114.12,-70.83,-318.6,-5.26,-42.86,-356.05,-47.16,77.52,34.35,137.92,38.8,-152.3,-164.75,22.64,-28.46,-19.85,-38.42,-17.89,54.39,-122.14
2481402,498_1,0.4333,291.77,334.83,162.16,-31.82,44.82,-56.76,-7.6,16.6,-4.36,-35.11,114.26,49.64,158.73,-197.3,50.69,3.93,-43.58,-182.33,366.54,-0.29,-25.65,-313.16,2.38,-21.71,-333.1,-39.73,69.82,28.4,131.1,16.59,-140.23,-193.47,29.97,-32.57,-20.87,-54.67,-21.4,53.85,-117.0
2481403,498_1,0.4361,288.07,323.37,154.61,-24.74,40.03,-63.11,2.58,14.58,-3.83,-37.02,130.44,44.81,82.27,-216.76,56.57,-0.14,-40.28,-194.33,347.24,-118.96,22.16,-304.09,11.58,-6.65,-312.83,-34.37,66.03,28.38,120.25,0.32,-98.31,-158.34,25.34,-34.87,-21.0,-69.81,-27.12,52.75,-114.4
2481404,498_1,0.4389,284.15,282.57,135.43,-12.96,33.62,-65.54,14.47,10.24,-2.7,-40.46,150.49,39.76,20.36,-227.94,60.88,-7.24,-36.1,-206.71,328.5,-220.09,63.8,-292.28,21.52,1.46,-296.58,-31.68,67.18,34.74,106.77,-7.58,-32.48,-62.56,9.11,-35.02,-20.59,-83.3,-33.71,51.49,-114.05
2481405,498_1,0.4417,279.83,207.4,102.64,1.78,26.68,-64.57,27.18,4.35,-1.18,-44.58,172.89,36.16,-18.04,-232.05,63.58,-16.1,-31.93,-218.39,311.39,-286.78,92.53,-279.14,31.08,2.74,-285.34,-31.65,73.11,47.03,92.97,-6.96,44.83,78.35,-16.03,-33.17,-20.08,-94.53,-40.07,50.28,-115.33
2481406,498_1,0.4444,274.35,97.73,56.53,17.46,20.18,-61.05,39.64,-2.21,0.52,-48.78,195.17,34.98,-26.73,-230.47,64.73,-25.4,-28.52,-228.05,295.23,-311.31,105.25,-266.36,39.08,-1.48,-279.39,-33.64,82.38,63.85,81.45,0.1,118.51,240.07,-45.74,-29.89,-19.87,-102.79,-45.54,49.21,-117.46
2481407,498_1,0.4472,266.77,-40.93,-0.24,31.91,14.86,-56.12,50.71,-8.69,2.18,-52.81,214.24,36.18,-3.71,-224.22,64.37,-33.87,-26.35,-234.46,278.27,-295.97,102.73,-255.66,44.55,-8.76,-278.17,-36.56,92.59,83.01,74.48,10.03,174.77,395.4,-75.03,-26.1,-20.17,-107.51,-49.83,48.27,-119.67
2481408,498_1,0.45,256.44,-197.76,-62.89,43.12,11.1,-51.0,59.24,-14.59,3.67,-56.78,227.0,38.72,47.8,-213.39,62.28,-40.43,-25.53,-236.83,258.61,-250.77,88.65,-248.46,46.97,-15.98,-280.3,-39.15,100.9,101.89,73.51,18.91,204.29,520.59,-99.38,-22.84,-20.94,-108.46,-52.96,47.49,-121.34
2481409,498_1,0.4528,243.29,-357.87,-125.25,49.57,8.94,-46.82,64.19,-19.71,4.95,-61.04,231.09,40.93,119.44,-196.88,57.94,-44.35,-25.89,-234.9,235.28,-189.34,68.05,-245.56,46.39,-20.04,-283.85,-40.31,104.8,117.9,78.95,23.57,203.52,600.34,-115.69,-21.06,-21.86,-105.85,-55.16,46.97,-122.01
2481410,498_1,0.4556,228.01,-504.83,-180.8,50.5,8.21,-44.23,64.87,-24.17,6.03,-66.02,225.5,41.12,198.83,-172.74,50.57,-45.33,-27.1,-229.01,208.79,-124.67,45.76,-246.96,43.36,-18.61,-286.69,-39.34,102.7,129.09,90.2,22.45,174.6,629.93,-122.75,-21.36,-22.47,-100.37,-56.73,46.91,-121.35
2481411,498_1,0.4583,211.77,-623.75,-223.97,46.14,8.76,-43.34,61.06,-28.23,7.0,-72.05,211.0,38.18,271.87,-138.97,39.44,-43.64,-28.86,-219.9,181.07,-65.64,25.27,-251.74,38.63,-10.64,-287.0,-36.06,94.28,134.56,105.89,15.79,124.2,613.93,-121.11,-23.84,-22.29,-92.99,-58.01,47.59,-119.17
2481412,498_1,0.4611,195.97,-704.17,-251.23,37.71,10.51,-43.7,53.26,-32.26,7.93,-79.2,190.12,31.95,325.43,-94.7,24.22,-40.04,-31.06,-208.42,154.78,-15.26,8.17,-258.28,32.91,3.38,-283.54,-30.82,80.54,134.7,124.15,5.38,61.98,562.34,-112.43,-28.11,-20.98,-84.8,-59.34,49.39,-115.31
2481413,498_1,0.4639,181.77,-741.56,-261.54,27.26,13.51,-44.5,42.64,-36.55,8.92,-87.19,166.59,23.29,350.11,-41.06,5.27,-35.68,-33.87,-195.36,132.38,29.28,-5.82,-264.62,26.58,21.65,-275.84,-24.35,63.49,131.0,142.9,-6.1,-1.17,485.83,-98.59,-33.33,-18.49,-76.7,-61.02,52.61,-109.64
2481414,498_1,0.4667,169.85,-736.7,-256.06,17.24,17.9,-44.85,30.93,-41.24,9.99,-95.43,144.51,13.69,342.22,18.35,-16.16,-31.83,-37.63,-181.22,115.34,74.57,-18.27,-268.93,19.66,41.38,-264.26,-17.55,45.73,125.7,159.99,-15.92,-55.0,392.26,-80.98,-38.52,-15.05,-69.35,-63.37,57.36,-102.02
2481415,498_1,0.4694,160.3,-693.36,-237.2,9.94,23.77,-43.97,20.12,-46.2,11.12,-103.09,127.39,4.92,304.61,77.97,-38.01,-29.62,-42.62,-166.16,103.81,127.87,-31.13,-269.93,11.89,59.29,-249.75,-11.33,29.96,121.17,173.4,-21.96,-91.46,285.72,-60.33,-42.79,-11.16,-63.11,-66.59,63.38,-92.27
2481416,498_1,0.4722,152.71,-615.44,-207.43,7.06,31.03,-41.36,12.0,-50.98,12.22,-109.37,117.44,-1.42,246.05,131.28,-57.82,-29.73,-48.89,-150.12,96.76,193.61,-45.79,-267.19,2.94,72.26,-233.57,-6.46,18.46,119.42,181.48,-23.08,-105.88,168.29,-37.04,-45.47,-7.48,-58.1,-70.74,69.99,-80.24
2481417,498_1,0.475,146.38,-504.95,-168.53,9.33,39.39,-36.86,7.84,-54.83,13.1,-113.82,115.25,-4.04,179.15,172.42,-73.25,-32.32,-56.07,-132.94,92.54,270.85,-62.41,-261.1,-7.34,77.86,-217.0,-3.39,12.67,121.78,183.31,-19.2,-97.34,43.23,-11.86,-46.21,-4.63,-54.27,-75.6,76.14,-65.94
2481418,498_1,0.4778,140.47,-361.79,-121.37,16.45,48.28,-30.7,8.06,-56.83,13.55,-116.61,119.96,-2.03,117.28,197.4,-82.61,-37.03,-63.34,-114.6,89.48,352.13,-79.62,-252.72,-18.78,74.98,-201.07,-2.22,12.8,128.77,179.02,-11.14,-68.51,-82.27,13.66,-44.8,-3.09,-51.38,-80.54,80.61,-49.73
2481419,498_1,0.4806,134.16,-185.53,-66.36,27.22,56.89,-23.37,12.25,-56.14,13.37,-118.64,129.7,5.1,71.45,204.93,-85.25,-43.1,-69.59,-95.37,86.26,424.34,-94.74,-243.47,-30.83,64.13,-186.52,-2.66,17.69,140.25,170.05,-0.39,-24.9,-196.59,37.01,-41.09,-3.01,-49.05,-84.52,82.24,-32.44
2481420,498_1,0.4833,126.72,21.57,-4.41,39.86,64.26,-15.52,19.25,-52.27,12.45,-121.4,142.28,17.33,47.74,196.28,-81.48,-49.52,-73.67,-75.85,82.11,471.36,-104.35,-234.85,-42.69,47.52,-173.79,-4.09,24.91,155.54,159.05,11.25,26.26,-285.69,55.22,-34.89,-4.26,-46.79,-86.23,80.3,-15.34
2481421,498_1,0.4861,117.59,251.32,62.18,52.36,69.43,-7.83,27.48,-45.38,10.81,-126.58,155.71,33.87,46.12,174.55,-72.41,-55.28,-74.72,-56.97,76.69,478.01,-105.28,-228.22,-53.53,28.69,-163.1,-5.69,31.2,173.65,149.3,21.91,77.36,-337.0,65.61,-26.0,-6.4,-44.08,-84.3,74.64,0.06
2481422,498_1,0.4889,106.48,487.41,129.05,62.85,71.67,-0.9,35.33,-36.25,8.65,-135.51,168.62,53.1,60.83,143.81,-59.59,-59.43,-72.37,-39.75,69.87,433.73,-95.35,-224.6,-62.73,11.9,-154.45,-6.6,33.08,193.37,143.9,30.03,121.7,-343.34,66.57,-14.44,-8.85,-40.61,-77.71,65.83,12.46
2481423,498_1,0.4917,93.54,705.46,189.77,69.89,70.65,4.72,41.44,-26.18,6.26,-148.64,180.29,72.63,82.09,108.34,-44.73,-61.26,-66.91,-25.12,61.61,334.72,-73.85,-224.62,-69.98,1.25,-147.67,-6.12,27.58,213.39,144.87,34.68,154.43,-305.15,58.08,-0.6,-11.01,-36.42,-66.11,55.0,21.11
2481424,498_1,0.4944,79.4,875.9,236.61,72.62,66.58,8.53,44.95,-16.65,4.0,-165.25,190.59,89.63,98.77,72.31,-29.56,-60.39,-59.16,-13.8,51.86,184.23,-41.6,-228.4,-75.28,-0.16,-142.39,-3.82,12.97,232.4,152.59,35.74,173.09,-230.47,41.73,14.55,-12.44,-31.99,-50.09,43.59,26.03
2481425,498_1,0.4972,65.11,969.8,262.14,70.89,60.13,10.01,45.53,-8.97,2.17,-183.46,199.67,101.45,101.34,39.76,-15.82,-56.84,-50.33,-6.18,40.67,-7.91,-0.76,-235.52,-78.81,9.06,-138.07,0.32,-10.72,249.23,165.68,33.99,177.56,-132.82,20.33,29.53,-12.95,-28.12,-31.23,33.09,27.91
2481426,498_1,0.5,51.88,966.21,261.11,65.12,52.39,8.64,43.24,-3.99,0.96,-200.63,207.59,106.28,84.25,14.45,-5.13,-51.06,-41.75,-2.45,28.29,-225.68,45.23,-245.02,-80.7,28.19,-134.07,5.92,-41.44,262.91,181.51,30.78,169.71,-28.4,-2.62,42.53,-12.61,-25.68,-11.88,24.73,27.72
2481427,498_1,0.5028,40.76,858.75,232.16,56.21,44.64,4.11,38.33,-1.99,0.44,-213.99,214.18,103.53,47.25,-0.51,1.19,-43.93,-34.67,-2.67,15.26,-447.31,91.82,-255.5,-80.9,54.38,-129.74,12.19,-75.24,272.69,197.0,27.68,152.76,66.74,-23.49,51.73,-11.7,-25.3,5.18,19.39,26.24
2481428,498_1,0.5056,32.36,658.49,178.58,45.33,38.17,-3.63,31.07,-2.66,0.55,-221.27,218.92,94.04,-4.85,-3.15,2.31,-36.67,-30.04,-6.8,2.46,-646.93,133.62,-265.32,-79.23,82.97,-124.6,18.13,-106.71,278.06,209.5,25.9,130.46,138.88,-39.05,55.71,-10.61,-27.14,17.25,17.53,23.75
2481429,498_1,0.5083,26.66,391.96,107.63,33.71,34.0,-14.15,21.65,-5.29,1.11,-221.34,221.16,79.78,-63.78,6.96,-1.91,-30.63,-28.4,-14.66,-9.06,-798.47,165.27,-272.93,-75.47,108.36,-118.43,22.63,-129.88,278.63,217.28,25.94,106.32,178.35,-46.94,53.73,-9.72,-30.8,22.2,19.18,20.04
2481430,498_1,0.5111,23.01,94.76,28.85,22.5,32.83,-26.55,10.25,-8.94,1.92,-214.43,220.36,63.38,-120.4,28.73,-10.89,-26.99,-29.89,-25.79,-18.26,-881.37,182.54,-277.15,-69.61,125.08,-111.35,24.73,-139.48,274.24,219.72,27.48,82.81,180.76,-46.0,45.93,-9.29,-35.5,18.97,24.01,14.68
2481431,498_1,0.5139,20.35,-196.49,-48.06,12.67,34.9,-39.42,-2.74,-12.62,2.75,-202.14,216.38,47.53,-167.4,59.85,-23.53,-26.56,-34.24,-39.32,-24.48,-886.07,183.48,-277.43,-62.0,129.13,-103.79,23.87,-132.19,265.01,217.14,29.51,60.87,147.52,-36.5,33.31,-9.44,-40.33,7.69,31.39,7.45
2481432,498_1,0.5167,17.41,-451.11,-115.1,5.04,40.03,-51.03,-16.64,-15.47,3.41,-187.05,209.72,34.33,-201.22,97.22,-38.38,-29.64,-40.81,-53.94,-27.72,-816.76,169.0,-273.9,-53.4,119.03,-96.34,20.01,-107.67,251.51,210.33,30.69,39.84,85.28,-20.07,17.52,-10.12,-44.61,-10.31,40.45,-1.22
2481433,498_1,0.5194,12.98,-648.32,-166.9,0.3,47.66,-59.64,-30.36,-16.86,3.74,-172.11,201.43,24.9,-222.59,137.34,-53.87,-36.01,-48.77,-68.02,-28.76,-690.06,142.55,-267.14,-44.79,96.35,-89.55,13.7,-68.95,234.77,200.24,29.82,17.92,4.24,0.75,0.55,-11.15,-48.0,-32.93,50.16,-10.3
2481434,498_1,0.5222,6.14,-778.07,-200.99,-0.92,56.9,-63.84,-42.53,-16.44,3.66,-159.99,192.91,19.35,-235.44,176.51,-68.42,-45.14,-57.12,-79.91,-29.05,-530.04,109.16,-257.94,-37.13,65.38,-83.78,5.94,-21.92,216.24,187.76,26.18,-6.8,-84.03,23.02,-15.68,-12.29,-50.55,-57.77,59.46,-18.3
2481435,498_1,0.525,-3.55,-839.91,-217.37,1.86,66.67,-63.06,-51.78,-14.11,3.15,-152.56,185.51,16.92,-244.74,211.16,-80.61,-56.28,-64.86,-88.26,-30.27,-361.61,73.97,-247.02,-31.08,31.96,-79.12,-1.99,26.02,197.66,173.65,19.75,-35.24,-168.56,44.0,-29.65,-13.34,-52.58,-82.61,67.28,-23.8
2481436,498_1,0.5278,-15.91,-840.89,-217.98,8.8,75.81,-57.84,-57.15,-9.95,2.2,-150.5,180.21,16.43,-253.98,238.42,-89.36,-68.61,-71.0,-92.34,-33.73,-204.9,41.17,-234.98,-26.8,1.9,-75.41,-8.91,67.68,180.73,158.58,11.31,-66.38,-240.08,61.39,-40.41,-14.18,-54.43,-105.69,72.69,-25.87
2481437,498_1,0.5306,-30.1,-793.2,-206.04,19.49,83.16,-49.88,-58.35,-4.17,0.86,-153.25,177.3,16.79,-263.21,256.63,-94.13,-81.28,-74.73,-92.15,-39.66,-72.57,13.37,-222.32,-24.0,-20.59,-72.32,-13.95,97.76,166.97,143.26,2.35,-96.8,-291.04,73.38,-47.63,-14.8,-56.41,-125.71,74.97,-24.35
2481438,498_1,0.5333,-44.66,-711.52,-185.32,32.87,87.71,-41.74,-55.94,2.93,-0.82,-159.22,176.46,17.33,-268.17,265.52,-94.92,-93.37,-75.43,-88.47,-46.98,29.72,-8.27,-209.61,-21.99,-33.84,-69.55,-16.73,113.95,157.4,128.42,-5.18,-121.12,-315.23,78.57,-51.45,-15.26,-58.69,-141.82,73.73,-19.89
2481439,498_1,0.5361,-57.67,-610.12,-159.47,47.3,88.76,-36.27,-51.08,10.98,-2.73,-166.24,176.85,18.02,-260.78,265.66,-92.07,-104.02,-72.76,-82.72,-53.39,101.05,-23.51,-197.57,-19.94,-38.83,-66.84,-17.36,117.06,152.51,114.78,-9.15,-132.92,-307.91,75.93,-52.37,-15.64,-61.35,-153.43,69.0,-13.74
2481440,498_1,0.5389,-67.02,-500.7,-131.43,60.89,86.03,-35.9,-45.23,19.5,-4.79,-172.08,177.51,19.38,-230.94,257.47,-85.82,-112.44,-66.75,-76.67,-56.07,142.87,-32.59,-187.03,-17.01,-38.38,-64.07,-16.38,110.36,152.19,102.99,-7.73,-126.42,-266.74,65.04,-51.06,-15.98,-64.46,-160.28,61.31,-7.45
2481441,498_1,0.5417,-70.88,-391.48,-103.25,71.9,79.78,-41.98,-39.73,28.0,-6.86,-174.96,177.59,22.33,-169.29,240.37,-76.08,-118.1,-57.9,-72.05,-52.67,157.61,-35.93,-178.75,-12.62,-35.85,-61.17,-14.45,98.22,155.79,93.54,0.21,-98.24,-193.43,46.43,-48.27,-16.27,-68.0,-162.44,51.62,-2.48
2481442,498_1,0.5444,-68.05,-287.89,-76.3,79.18,70.84,-54.49,-35.44,35.98,-8.83,-173.96,176.58,27.84,-70.39,212.71,-62.35,-120.78,-47.11,-70.16,-42.17,148.68,-34.14,-173.31,-6.62,-33.89,-58.1,-12.23,84.69,162.26,86.76,14.76,-49.1,-95.07,21.89,-44.72,-16.46,-71.81,-160.4,41.24,0.04
2481443,498_1,0.5472,-58.38,-194.35,-51.73,82.33,60.55,-72.07,-32.74,42.98,-10.59,-169.15,174.37,36.73,64.7,172.81,-44.2,-120.67,-35.68,-71.58,-25.36,121.52,-28.29,-170.88,0.61,-33.63,-54.84,-10.16,72.45,170.34,82.8,34.91,15.46,15.69,-5.47,-41.07,-16.51,-75.55,-155.05,31.55,-0.45
2481444,498_1,0.55,-42.89,-116.04,-30.99,81.78,50.49,-92.22,-31.52,48.6,-12.01,-161.5,171.17,49.45,227.14,120.59,-21.86,-118.3,-25.11,-75.96,-4.67,84.74,-20.2,-171.2,8.12,-34.55,-51.35,-8.44,62.43,178.68,81.68,58.67,85.62,122.33,-31.66,-37.81,-16.44,-78.58,-147.62,23.8,-3.89
2481445,498_1,0.5528,-23.74,-59.62,-15.98,78.64,42.26,-111.84,-31.38,52.46,-13.02,-152.58,167.33,65.85,400.95,59.17,3.14,-114.43,-16.92,-82.11,16.61,50.44,-12.45,-173.58,14.48,-35.06,-47.59,-7.04,54.11,186.06,83.33,83.53,149.2,207.76,-52.55,-35.26,-16.34,-80.16,-139.52,18.88,-9.55
2481446,498_1,0.5556,-3.9,-32.29,-8.79,74.45,37.19,-127.8,-31.74,54.23,-13.51,-144.22,163.33,85.09,565.14,-4.6,27.75,-109.96,-12.35,-88.23,35.26,33.01,-8.12,-177.02,18.12,-33.34,-43.49,-5.82,46.31,191.44,87.58,106.94,194.52,258.09,-64.78,-33.54,-16.37,-79.59,-132.11,17.19,-16.19
2481447,498_1,0.5583,13.4,-39.57,-11.02,70.77,35.96,-137.5,-31.98,53.68,-13.42,-138.14,159.67,105.49,697.07,-61.16,47.82,-105.71,-12.12,-92.35,49.11,46.7,-10.29,-180.5,17.66,-28.23,-38.98,-4.64,38.02,194.11,94.2,126.77,213.18,265.69,-66.46,-32.63,-16.62,-76.46,-126.47,18.58,-22.27
2481448,498_1,0.5611,25.28,-82.45,-22.99,68.83,38.52,-139.39,-31.54,50.78,-12.74,-135.72,156.94,124.69,776.27,-100.81,59.11,-102.25,-16.14,-92.81,57.41,102.54,-21.29,-183.15,12.39,-19.72,-34.02,-3.45,28.99,193.75,102.85,141.62,201.59,230.53,-57.52,-32.39,-17.11,-70.88,-123.24,22.41,-26.22
2481449,498_1,0.5639,29.84,-155.03,-43.11,69.33,43.94,-133.32,-29.98,45.79,-11.53,-137.85,155.9,139.9,788.29,-117.08,58.86,-99.87,-23.47,-88.66,60.85,205.14,-42.04,-184.51,2.53,-8.92,-28.63,-2.29,19.75,190.47,113.12,150.83,161.27,159.86,-39.67,-32.58,-17.65,-63.52,-122.48,27.61,-26.83
2481450,498_1,0.5667,26.57,-243.56,-67.55,72.34,50.61,-120.48,-27.14,39.27,-9.92,-144.79,157.37,148.47,728.03,-110.03,47.4,-98.6,-32.4,-79.89,61.03,350.3,-71.62,-184.48,-10.7,2.48,-22.91,-1.23,11.18,184.83,124.43,154.44,97.77,66.7,-16.02,-32.95,-17.92,-55.54,-123.76,32.91,-23.46
2481451,498_1,0.5694,16.56,-327.23,-90.5,77.4,56.57,-103.12,-23.12,31.97,-8.1,-156.13,162.11,148.6,601.49,-88.13,29.3,-98.36,-40.85,-67.43,59.79,523.93,-107.04,-183.27,-25.27,12.96,-17.15,-0.35,3.89,177.8,136.12,152.89,19.36,-32.16,9.35,-33.24,-17.55,-48.37,-126.39,37.04,-16.24
2481452,498_1,0.5722,2.35,-380.94,-104.98,83.73,60.04,-83.96,-18.41,24.62,-6.26,-170.69,170.52,139.85,425.48,-68.11,13.57,-99.04,-46.81,-52.96,58.56,702.99,-143.48,-181.26,-38.81,21.73,-11.77,0.37,-2.2,170.56,147.4,146.81,-64.27,-118.4,31.97,-33.22,-16.25,-43.4,-129.57,39.06,-5.99
2481453,498_1,0.575,-12.63,-379.94,-104.09,90.42,59.82,-65.62,-13.73,17.87,-4.56,-186.61,182.42,123.39,224.95,-72.15,12.3,-100.6,-48.89,-38.6,57.9,858.15,-174.92,-178.84,-49.18,28.91,-7.33,1.02,-7.88,164.42,157.55,136.9,-143.0,-174.71,47.63,-32.69,-13.93,-41.69,-132.63,38.5,5.93
2481454,498_1,0.5778,-24.8,-305.73,-82.69,96.5,55.65,-50.19,-9.96,12.11,-3.11,-201.58,196.95,101.84,28.55,-122.73,38.04,-102.93,-46.61,-26.47,57.32,958.52,-195.08,-176.45,-54.84,35.31,-4.4,1.74,-14.28,160.57,165.93,123.81,-207.27,-187.81,53.07,-31.53,-10.75,-43.71,-134.98,35.54,17.87
2481455,498_1,0.5806,-31.26,-151.85,-38.99,101.11,48.19,-39.02,-7.88,7.59,-1.96,-213.3,212.69,78.79,-136.4,-236.13,100.02,-105.81,-40.44,-18.31,55.43,977.69,-198.69,-174.57,-55.2,41.9,-3.5,2.62,-22.26,159.96,172.16,108.21,-249.36,-151.61,46.81,-29.62,-7.11,-49.28,-136.15,30.89,28.25
2481456,498_1,0.5833,-30.53,72.08,24.31,103.57,38.83,-32.81,-7.9,4.48,-1.18,-219.97,227.86,57.99,-248.6,-416.04,200.45,-108.81,-31.64,-15.21,50.32,900.53,-182.8,-173.66,-50.59,49.33,-4.93,3.69,-32.03,163.14,176.09,90.97,-264.84,-70.0,29.74,-26.92,-3.57,-57.59,-135.63,25.61,35.79
2481457,498_1,0.5861,-22.96,339.9,99.85,103.54,29.27,-31.66,-9.92,2.97,-0.8,-220.77,240.72,42.64,-296.48,-648.93,331.81,-111.34,-21.81,-17.37,40.27,728.96,-147.95,-174.14,-42.11,57.7,-8.67,4.88,-43.02,170.12,177.75,73.21,-253.8,41.96,5.35,-23.38,-0.67,-67.45,-132.98,20.75,39.77
2481458,498_1,0.5889,-10.7,613.0,176.78,101.06,21.11,-35.22,-13.23,3.27,-0.9,-216.09,249.86,34.66,-280.48,-902.87,476.2,-112.76,-12.51,-24.16,24.39,484.38,-98.53,-176.26,-31.33,66.51,-14.35,6.07,-54.15,180.33,177.26,56.35,-220.92,159.49,-20.72,-19.04,1.14,-77.54,-127.87,17.12,40.14
2481459,498_1,0.5917,2.74,848.48,242.98,96.62,15.46,-42.64,-16.65,5.54,-1.5,-207.46,254.43,34.32,-213.3,-1130.82,607.3,-112.55,-4.94,-34.2,3.15,204.96,-42.28,-180.01,-20.01,74.97,-21.29,7.12,-64.21,192.61,174.77,41.98,-174.22,252.52,-41.74,-14.03,1.67,-86.7,-120.23,15.11,37.54
2481460,498_1,0.5944,13.16,1009.38,288.02,91.0,12.82,-52.49,-18.79,9.69,-2.61,-197.12,254.23,40.16,-117.69,-1278.4,694.86,-110.38,0.25,-45.73,-21.43,-62.36,11.33,-185.14,-9.76,82.29,-28.64,7.93,-72.35,205.31,170.38,31.63,-122.64,292.31,-51.41,-8.6,0.94,-94.11,-110.32,14.7,33.05
2481461,498_1,0.5972,16.65,1073.55,305.66,85.03,13.13,-62.82,-18.47,15.31,-4.1,-187.5,249.66,49.46,-21.94,-1295.29,711.08,-106.2,2.86,-56.99,-46.11,-273.16,53.36,-191.25,-1.79,87.94,-35.56,8.46,-78.17,216.64,164.33,26.4,-73.53,258.85,-45.45,-3.15,-0.77,-99.26,-98.74,15.63,27.88
2481462,498_1,0.6,10.38,1038.01,295.08,79.36,15.93,-71.33,-15.05,21.52,-5.74,-180.68,241.56,58.97,46.55,-1147.75,637.56,-100.22,3.04,-66.6,-67.12,-396.37,77.54,-197.84,3.24,91.74,-41.43,8.72,-81.73,224.99,157.05,26.77,-31.1,146.86,-22.79,1.84,-3.05,-101.95,-86.36,17.59,22.98
2481463,498_1,0.6028,-6.61,917.6,260.49,74.33,20.57,-75.87,-8.68,27.14,-7.24,-177.91,231.02,65.89,68.01,-829.37,470.95,-92.9,1.11,-73.83,-81.09,-421.15,81.63,-204.46,5.36,93.75,-45.93,8.75,-83.22,229.31,149.25,32.38,3.67,-31.47,13.9,5.89,-5.45,-102.12,-74.19,20.43,18.76
2481464,498_1,0.6056,-33.07,739.31,209.5,69.89,26.36,-74.93,-0.31,30.92,-8.25,-179.44,219.18,68.69,35.76,-366.75,225.93,-84.88,-2.5,-78.63,-85.94,-357.49,67.65,-210.72,5.11,94.11,-49.02,8.57,-82.76,229.39,141.85,42.14,32.02,-248.16,58.64,8.65,-7.57,-99.84,-63.13,24.1,15.08
2481465,498_1,0.6083,-65.61,534.71,151.02,65.73,32.61,-68.1,8.62,31.83,-8.5,-184.49,207.06,67.47,-41.6,182.13,-65.98,-76.78,-7.29,-81.48,-81.51,-231.32,40.88,-216.35,3.43,92.87,-50.87,8.19,-80.24,225.92,135.76,54.38,56.05,-465.36,103.39,9.94,-9.16,-95.31,-53.89,28.57,11.4
2481466,498_1,0.6111,-99.16,332.91,93.23,61.39,38.59,-56.26,16.56,29.45,-7.89,-191.56,195.44,63.77,-142.33,737.54,-361.8,-69.16,-12.62,-83.01,-69.64,-76.27,8.27,-221.25,1.26,89.99,-51.68,7.61,-75.55,220.27,131.67,67.14,77.8,-644.08,139.87,9.81,-10.14,-88.89,-46.76,33.56,7.15
2481467,498_1,0.6139,-127.94,155.51,42.23,56.53,43.56,-41.44,22.33,24.08,-6.48,-198.84,184.77,59.94,-237.64,1213.99,-615.9,-62.37,-17.7,-83.73,-53.71,74.73,-23.33,-225.45,-0.67,85.44,-51.61,6.83,-68.84,214.23,129.8,78.5,98.98,-753.21,161.42,8.52,-10.58,-81.13,-41.7,38.48,2.04
2481468,498_1,0.6167,-146.7,14.38,1.36,51.07,46.76,-26.44,25.39,16.72,-4.54,-204.61,175.15,58.25,-299.74,1539.0,-790.1,-56.57,-21.65,-83.85,-37.83,195.9,-48.48,-229.07,-2.06,79.48,-50.84,5.93,-60.77,209.47,129.9,86.91,121.01,-776.51,164.58,6.42,-10.69,-72.72,-38.37,42.4,-3.81
2481469,498_1,0.6194,-151.94,-87.64,-28.55,45.25,47.6,-14.22,25.89,8.81,-2.46,-207.58,166.36,60.13,-309.33,1669.45,-862.21,-51.84,-23.66,-83.3,-25.76,271.84,-63.87,-232.23,-2.97,72.77,-49.52,5.01,-52.63,207.17,131.31,91.45,145.15,-715.69,149.73,3.91,-10.74,-64.4,-36.39,44.26,-9.97
2481470,498_1,0.6222,-142.75,-153.83,-48.36,39.64,45.72,-7.25,24.55,1.88,-0.62,-207.09,157.95,65.79,-260.21,1600.47,-830.31,-48.2,-23.17,-81.86,-20.19,297.87,-68.45,-235.0,-3.69,66.33,-47.93,4.22,-46.05,207.75,133.11,92.03,172.37,-588.96,120.96,1.29,-10.98,-56.79,-35.46,43.23,-15.84
2481471,498_1,0.625,-121.0,-189.84,-59.57,34.91,41.21,-6.94,22.34,-2.92,0.67,-203.11,149.3,74.23,-160.12,1364.13,-711.52,-45.7,-20.03,-79.38,-22.18,278.09,-63.03,-237.34,-4.59,61.33,-46.42,3.68,-42.57,210.89,134.4,89.37,203.03,-425.62,84.88,-1.28,-11.54,-50.33,-35.48,38.98,-20.95
2481472,498_1,0.6278,-90.85,-200.96,-63.5,31.72,34.57,-13.29,20.22,-5.01,1.26,-196.27,139.79,83.67,-28.21,1018.66,-535.98,-44.41,-14.61,-75.92,-31.26,222.28,-49.61,-239.11,-5.98,58.66,-45.3,3.48,-43.13,215.67,134.44,84.88,236.67,-258.46,49.03,-3.74,-12.43,-45.18,-36.5,31.87,-25.04
2481473,498_1,0.6306,-57.66,-191.32,-61.12,30.51,26.67,-24.89,18.88,-4.48,1.16,-187.74,128.94,92.06,109.53,632.66,-338.67,-44.33,-7.71,-71.75,-45.72,142.67,-30.75,-240.12,-8.0,58.63,-44.77,3.63,-47.71,221.05,132.86,80.27,271.86,-116.01,19.99,-6.11,-13.48,-41.26,-38.6,22.88,-28.11
2481474,498_1,0.6333,-26.78,-164.93,-53.48,31.43,18.62,-39.27,18.61,-2.0,0.55,-179.09,116.5,97.66,225.67,269.47,-151.67,-45.43,-0.42,-67.28,-63.17,51.31,-9.01,-240.06,-10.68,60.78,-44.71,4.04,-55.29,226.14,129.71,77.14,306.27,-16.68,1.93,-8.41,-14.47,-38.32,-41.82,13.43,-30.32
2481475,498_1,0.6361,-2.45,-127.6,-42.3,34.27,11.53,-53.4,19.27,1.46,-0.32,-172.04,102.59,99.39,296.55,-23.89,1.24,-47.59,6.13,-63.0,-81.1,-41.72,13.46,-238.6,-13.95,63.92,-44.74,4.57,-64.03,230.42,125.39,76.49,336.75,34.17,-4.28,-10.59,-15.15,-36.07,-46.04,5.0,-31.88
2481476,498_1,0.6389,12.83,-88.1,-30.42,38.56,6.31,-64.28,20.38,4.84,-1.18,-168.17,87.75,96.96,306.14,-221.76,106.98,-50.59,11.0,-59.27,-97.19,-129.07,35.04,-235.46,-17.68,66.36,-44.25,5.06,-71.64,233.75,120.55,78.4,359.56,43.74,-1.12,-12.59,-15.35,-34.24,-51.05,-1.24,-32.97
2481477,498_1,0.6417,18.41,-57.58,-21.5,43.61,3.54,-69.43,21.18,7.22,-1.79,-168.56,72.9,90.73,248.12,-319.15,162.83,-54.19,13.6,-56.3,-109.57,-205.96,54.57,-230.49,-21.76,66.27,-42.64,5.32,-75.77,236.27,115.88,82.0,370.41,28.49,6.35,-14.29,-15.08,-32.66,-56.51,-4.65,-33.63
2481478,498_1,0.6444,15.18,-46.92,-19.15,48.65,3.43,-67.26,20.93,7.96,-1.99,-173.59,59.27,81.51,125.88,-327.4,174.2,-58.06,13.76,-54.11,-116.94,-269.02,71.12,-223.8,-26.1,61.99,-39.57,5.22,-74.43,238.27,111.99,85.64,364.8,8.99,11.9,-15.63,-14.53,-31.27,-62.06,-5.27,-33.81
2481479,498_1,0.6472,5.01,-62.86,-25.56,52.97,5.74,-57.29,19.0,6.8,-1.71,-182.87,48.12,70.28,-48.9,-268.29,151.65,-61.9,11.76,-52.48,-118.54,-314.9,83.61,-215.77,-30.65,52.38,-35.04,4.67,-66.31,240.03,109.35,87.32,338.57,4.32,9.77,-16.58,-14.05,-30.07,-67.35,-3.79,-33.38
2481480,498_1,0.65,-9.87,-104.36,-40.23,56.11,9.87,-40.19,15.17,3.87,-0.98,-195.25,40.57,58.04,-258.32,-168.46,107.93,-65.36,8.25,-51.05,-114.22,-339.26,90.62,-207.02,-35.37,37.09,-29.49,3.64,-51.11,241.79,108.29,85.28,288.92,27.39,-3.77,-17.19,-14.04,-28.99,-72.07,-1.32,-32.29
2481481,498_1,0.6528,-27.29,-160.7,-59.34,57.87,14.85,-17.7,9.72,-0.37,0.08,-209.1,37.38,45.67,-479.98,-54.85,55.62,-68.15,4.17,-49.34,-104.46,-336.87,90.49,-198.28,-40.28,16.76,-23.61,2.21,-29.75,243.59,109.05,78.47,215.82,82.26,-29.45,-17.58,-14.81,-27.91,-76.01,0.78,-30.6
2481482,498_1,0.6556,-45.45,-212.34,-76.03,58.4,19.51,7.68,3.43,-5.21,1.29,-222.57,38.96,33.99,-688.39,48.56,5.47,-70.01,0.55,-46.86,-90.35,-303.15,81.72,-190.22,-45.38,-7.03,-18.21,0.52,-4.41,245.17,111.78,66.87,123.19,163.74,-64.74,-17.97,-16.43,-26.59,-79.09,1.28,-28.54
2481483,498_1,0.6583,-62.94,-235.01,-81.79,58.02,22.68,33.15,-2.57,-9.91,2.46,-233.84,45.33,23.87,-856.67,123.23,-34.59,-70.75,-1.65,-43.26,-73.52,-236.53,63.7,-183.4,-50.66,-31.98,-13.88,-1.22,21.78,245.84,116.5,51.54,19.32,259.41,-104.56,-18.62,-18.73,-24.78,-81.31,-0.61,-26.4
2481484,498_1,0.6611,-78.72,-206.28,-68.76,57.08,23.46,56.2,-7.13,-13.78,3.43,-241.46,56.24,16.25,-959.29,157.82,-59.95,-70.17,-1.82,-38.4,-55.95,-140.56,37.27,-178.17,-56.1,-55.42,-10.95,-2.78,45.3,244.61,123.1,34.34,-84.09,353.13,-142.52,-19.8,-21.23,-22.32,-82.7,-5.06,-24.45
2481485,498_1,0.6639,-92.01,-112.97,-32.35,55.73,21.54,75.17,-9.36,-16.38,4.09,-244.45,71.13,12.19,-976.35,149.35,-69.34,-68.06,0.17,-32.39,-39.75,-24.59,4.95,-174.74,-61.66,-74.86,-9.3,-3.95,62.99,240.37,131.26,17.52,-174.13,429.07,-172.46,-21.68,-23.35,-19.27,-83.17,-11.52,-22.77
2481486,498_1,0.6667,-102.16,43.01,26.7,53.78,17.33,89.79,-8.99,-17.55,4.38,-242.42,88.96,12.71,-898.41,103.04,-64.42,-64.18,3.86,-25.6,-26.84,97.56,-29.4,-173.21,-67.31,-88.35,-8.53,-4.61,72.68,232.36,140.46,3.3,-239.5,475.25,-189.87,-24.21,-24.51,-15.87,-82.47,-18.84,-21.17
2481487,498_1,0.6694,-108.63,243.31,101.72,50.73,11.9,101.23,-6.41,-17.41,4.35,-235.54,108.2,18.6,-730.27,30.43,-48.78,-58.32,8.37,-18.53,-18.82,210.65,-61.52,-173.68,-72.96,-94.94,-8.06,-4.71,73.77,220.49,149.96,-6.52,-272.97,485.54,-192.64,-27.12,-24.33,-12.56,-80.15,-25.6,-19.21
2481488,498_1,0.6722,-110.92,457.04,181.46,45.93,6.67,111.82,-2.62,-16.37,4.09,-224.38,126.87,30.1,-491.7,-54.05,-26.74,-50.38,12.59,-11.7,-16.77,301.78,-87.76,-176.2,-78.47,-94.81,-7.39,-4.32,67.32,205.55,158.9,-10.63,-272.58,459.89,-181.08,-30.0,-22.68,-9.83,-75.76,-30.47,-16.36
2481489,498_1,0.675,-108.65,648.96,253.0,38.92,3.06,124.26,1.13,-14.97,3.74,-209.83,142.79,46.7,-214.21,-137.01,-2.19,-40.56,15.54,-5.53,-21.19,363.36,-105.94,-180.66,-83.62,-89.34,-6.2,-3.61,55.91,189.08,166.35,-8.26,-241.36,403.06,-157.4,-32.38,-19.72,-8.09,-69.1,-32.54,-12.14
2481490,498_1,0.6778,-101.62,788.42,304.93,29.7,1.99,140.53,3.66,-13.79,3.46,-192.92,154.06,67.05,65.37,-209.23,22.22,-29.43,16.59,-0.16,-31.8,394.29,-115.69,-186.71,-88.17,-80.89,-4.51,-2.79,43.15,172.99,171.41,0.92,-185.84,322.68,-124.84,-33.95,-15.8,-7.58,-60.47,-31.58,-6.26
2481491,498_1,0.6806,-89.97,855.74,329.83,18.89,3.68,160.98,4.14,-13.28,3.34,-174.73,159.46,89.15,312.74,-266.94,45.24,-17.93,15.57,4.54,-47.4,399.06,-118.18,-193.67,-91.88,-72.33,-2.57,-2.11,32.83,159.08,173.35,16.82,-114.06,227.39,-86.92,-34.68,-11.35,-8.32,-50.81,-27.98,1.29
2481492,498_1,0.6833,-74.34,844.44,325.07,7.65,7.58,183.66,2.26,-13.67,3.45,-156.33,158.82,110.65,502.79,-311.03,66.74,-7.24,12.77,8.96,-65.87,385.01,-115.34,-200.61,-94.65,-66.41,-0.82,-1.75,28.18,148.53,171.72,39.01,-33.72,125.52,-46.92,-34.81,-6.72,-10.11,-41.53,-22.58,10.31
2481493,498_1,0.6861,-55.96,759.8,292.43,-2.57,12.57,204.47,-1.85,-14.9,3.76,-138.85,153.05,129.28,623.29,-344.61,86.93,1.51,8.68,13.64,-84.47,358.75,-108.81,-206.53,-96.5,-65.04,0.28,-1.84,31.09,141.82,166.42,66.58,48.94,24.59,-7.69,-34.76,-2.17,-12.55,-34.19,-16.39,20.4
2481494,498_1,0.6889,-36.7,615.57,236.93,-10.48,17.35,217.92,-7.76,-16.63,4.21,-123.41,143.91,143.18,674.64,-370.01,105.56,7.47,3.86,19.06,-100.25,323.11,-99.05,-210.63,-97.61,-68.72,0.34,-2.4,41.72,138.66,157.79,97.94,129.24,-68.7,28.3,-34.95,2.2,-15.18,-30.02,-10.25,31.11
2481495,498_1,0.6917,-18.78,430.67,165.63,-15.29,20.87,218.48,-14.99,-18.38,4.65,-111.14,133.64,151.03,666.38,-386.72,121.35,10.27,-1.34,25.4,-110.67,276.02,-85.11,-212.48,-98.14,-76.35,-0.8,-3.32,58.45,138.34,146.56,130.69,203.41,-148.24,58.85,-35.58,6.35,-17.51,-29.56,-4.61,41.88
2481496,498_1,0.6944,-4.46,226.81,86.81,-17.01,22.67,202.01,-23.17,-19.58,4.96,-103.09,124.42,152.18,612.24,-391.26,132.08,10.13,-6.85,32.35,-114.05,212.25,-65.14,-212.14,-98.16,-85.23,-3.13,-4.43,78.15,139.93,133.82,161.51,267.55,-208.65,82.02,-36.56,10.26,-19.13,-32.46,0.6,52.07
2481497,498_1,0.6972,4.44,26.84,9.3,-16.45,23.07,167.03,-32.12,-19.77,4.99,-100.07,117.9,146.63,525.62,-379.05,135.27,7.69,-12.93,39.08,-109.76,127.58,-37.79,-210.11,-97.45,-91.63,-6.46,-5.51,96.76,142.58,120.91,186.43,316.79,-246.04,96.37,-37.49,13.81,-19.77,-37.57,5.96,60.93
2481498,498_1,0.7,6.96,-146.95,-58.17,-14.96,23.04,115.25,-41.8,-18.65,4.7,-102.48,114.92,135.1,417.12,-347.23,129.33,3.86,-19.97,44.28,-98.32,23.12,-3.5,-207.16,-95.55,-91.46,-10.52,-6.31,109.9,145.6,109.16,201.41,345.44,-259.18,101.45,-37.87,16.79,-19.32,-43.34,12.26,67.64
2481499,498_1,0.7028,3.17,-275.29,-107.95,-13.94,23.82,51.37,-52.14,-16.2,4.05,-110.13,115.44,118.98,294.55,-297.03,114.46,-0.49,-28.28,46.53,-81.12,-92.66,34.8,-204.07,-91.85,-81.23,-15.13,-6.63,113.62,148.47,99.74,203.35,348.34,-250.41,98.17,-37.22,18.93,-17.81,-48.26,20.29,71.31
2481500,498_1,0.7056,-5.91,-344.83,-134.69,-14.38,26.52,-17.77,-62.92,-12.66,3.13,-122.13,118.59,100.15,164.89,-234.62,93.1,-4.82,-37.88,44.57,-60.16,-205.61,72.28,-201.4,-85.73,-58.83,-20.29,-6.33,105.08,150.78,93.38,190.98,322.93,-225.54,88.83,-35.34,19.97,-15.38,-51.39,30.44,71.12
2481501,498_1,0.7083,-18.48,-350.81,-136.38,-16.37,31.62,-84.47,-73.59,-8.5,2.05,-136.91,122.95,80.78,37.06,-170.34,69.61,-9.1,-48.26,37.68,-37.73,-300.49,103.76,-199.31,-76.77,-24.18,-26.26,-5.35,83.09,152.06,90.25,165.46,271.28,-192.52,76.59,-32.35,19.73,-12.23,-52.62,42.51,66.43
2481502,498_1,0.7111,-32.35,-298.36,-114.97,-19.09,38.79,-141.43,-83.37,-4.37,0.99,-152.34,126.86,63.08,-76.19,-116.49,49.35,-13.78,-58.47,25.91,-16.07,-365.86,125.36,-197.46,-64.94,20.43,-33.44,-3.76,48.65,151.79,89.9,130.3,200.69,-159.2,64.54,-28.7,18.25,-8.59,-52.75,55.68,56.93
2481503,498_1,0.7139,-45.33,-201.82,-76.09,-21.02,46.89,-182.86,-91.25,-0.97,0.14,-166.04,128.69,49.03,-158.8,-84.51,37.42,-19.64,-67.16,10.13,2.9,-396.78,135.39,-195.21,-50.62,70.5,-42.25,-1.74,5.03,149.39,91.4,90.68,122.56,-131.07,54.82,-25.06,15.77,-4.73,-53.16,68.59,42.8
2481504,498_1,0.7167,-55.57,-81.98,-27.98,-20.46,54.22,-205.21,-96.2,1.11,-0.34,-175.91,127.1,40.08,-194.67,-82.18,37.38,-27.35,-72.88,-8.07,17.76,-394.28,134.17,-191.76,-34.67,119.8,-52.9,0.47,-42.36,144.36,93.51,52.25,49.71,-110.07,47.98,-22.14,12.7,-0.93,-55.33,79.6,24.8
2481505,498_1,0.7194,-61.91,38.26,20.19,-16.1,58.87,-207.5,-97.37,1.51,-0.35,-180.53,121.24,36.92,-173.04,-111.64,50.36,-37.19,-74.34,-26.56,27.62,-362.59,123.12,-186.5,-18.29,161.36,-65.2,2.55,-86.81,136.43,95.04,20.04,-6.61,-94.7,43.17,-20.51,9.57,2.52,-60.27,87.01,4.32
2481506,498_1,0.7222,-64.0,138.62,60.25,-7.33,59.16,-191.22,-94.2,0.21,0.1,-179.62,110.87,39.26,-93.94,-168.71,74.71,-48.82,-70.65,-42.94,32.1,-306.28,103.77,-179.15,-2.92,188.7,-78.54,4.21,-121.44,125.66,95.14,-2.25,-38.92,-81.57,38.74,-20.44,6.91,5.39,-68.25,89.39,-16.8
2481507,498_1,0.725,-62.25,205.29,86.62,5.61,54.0,-159.92,-86.52,-2.41,0.93,-174.11,96.39,45.78,28.74,-243.56,106.34,-61.34,-61.51,-54.91,31.19,-228.93,77.32,-169.86,9.92,197.23,-91.93,5.27,-140.68,112.47,93.5,-12.61,-44.34,-67.36,33.2,-21.91,5.16,7.53,-78.71,85.73,-36.46
2481508,498_1,0.7278,-57.65,232.93,97.09,21.83,43.11,-118.45,-74.59,-5.71,1.92,-165.92,78.76,54.31,168.11,-322.69,139.55,-73.56,-47.34,-60.63,25.25,-133.76,44.81,-159.06,18.89,185.22,-104.21,5.63,-141.5,97.57,90.41,-10.51,-24.32,-50.59,25.99,-24.58,4.53,8.98,-90.51,75.65,-52.7
2481509,498_1,0.7306,-51.35,224.47,92.86,40.12,27.08,-72.18,-59.07,-8.91,2.86,-157.51,59.38,62.21,289.47,-391.77,168.23,-84.32,-29.16,-58.99,14.99,-25.21,7.74,-147.35,23.08,154.22,-114.29,5.36,-124.02,81.89,86.62,3.35,16.17,-32.23,17.72,-27.93,5.06,9.87,-102.32,59.48,-64.01
2481510,498_1,0.7333,-44.38,189.29,77.75,59.15,7.26,-26.3,-41.01,-11.33,3.56,-151.15,39.88,66.89,358.34,-438.7,187.17,-92.85,-8.56,-49.9,1.56,89.78,-31.58,-135.31,22.17,108.61,-121.38,4.64,-91.36,66.47,83.09,27.26,69.25,-15.2,9.9,-31.35,6.57,10.45,-113.0,38.37,-69.6
2481511,498_1,0.7361,-37.45,140.71,57.28,77.7,-14.4,14.76,-21.78,-12.53,3.89,-148.46,21.97,66.39,348.74,-456.18,193.14,-98.81,12.52,-34.37,-13.41,201.57,-69.9,-123.5,16.56,54.51,-125.14,3.7,-48.68,52.42,80.66,58.65,124.66,-2.72,4.11,-34.3,8.78,10.92,-121.74,14.18,-69.5
2481512,498_1,0.7389,-30.82,93.4,37.55,94.51,-35.73,47.52,-2.97,-12.41,3.82,-149.94,7.4,59.68,249.39,-442.96,185.48,-102.2,32.11,-14.43,-28.02,298.97,-103.4,-112.53,7.38,-1.59,-125.76,2.78,-1.87,40.86,79.82,94.17,170.49,3.45,1.19,-36.34,11.36,11.38,-128.03,-10.65,-64.46
2481513,498_1,0.7417,-24.47,61.4,24.45,108.27,-54.62,69.49,13.8,-11.08,3.39,-154.93,-2.19,46.95,66.14,-403.49,166.09,-103.13,48.43,7.09,-40.36,370.93,-128.3,-103.26,-3.74,-54.11,-123.92,2.07,43.7,32.84,80.54,129.93,194.63,4.26,0.66,-37.23,14.0,11.73,-131.45,-33.46,-55.81
2481514,498_1,0.7444,-18.18,56.38,22.93,117.44,-69.2,79.0,27.05,-8.71,2.65,-161.76,-5.28,29.6,-179.18,-346.22,138.83,-101.5,60.17,27.0,-49.08,408.56,-141.47,-96.87,-14.91,-99.18,-120.63,1.69,84.1,29.17,82.32,161.89,187.15,3.35,0.77,-36.9,16.42,11.63,-131.48,-51.68,-45.13
2481515,498_1,0.7472,-11.76,86.28,36.38,120.41,-78.09,75.13,35.69,-5.27,1.6,-168.19,-0.78,10.19,-452.98,-280.99,108.46,-96.96,66.66,42.19,-53.73,406.59,-140.99,-94.79,-24.39,-134.84,-116.98,1.68,117.09,30.3,84.37,186.46,142.91,5.7,-0.88,-35.5,18.35,10.62,-127.49,-63.29,-34.03
2481516,498_1,0.75,-5.25,154.15,66.12,115.84,-80.4,57.64,39.13,-0.48,0.15,-171.92,11.8,-7.84,-716.01,-216.29,79.41,-89.03,67.87,50.16,-54.92,364.01,-126.28,-98.25,-30.88,-160.69,-113.88,2.03,141.92,36.17,85.88,201.18,63.89,15.83,-6.38,-33.36,19.55,8.22,-118.93,-67.13,-23.93
2481517,498_1,0.7528,0.97,257.41,111.1,103.19,-75.85,27.21,37.41,6.18,-1.85,-171.09,31.93,-20.66,-930.52,-157.22,54.82,-77.48,64.38,49.48,-54.16,283.2,-97.92,-107.79,-33.66,-177.35,-111.89,2.66,158.89,46.07,86.21,205.11,-39.85,36.34,-16.84,-30.96,19.84,4.18,-105.76,-63.06,-15.93
2481518,498_1,0.7556,6.14,388.06,167.87,83.11,-64.83,-14.22,31.17,15.24,-4.56,-164.68,57.92,-24.87,-1067.61,-104.94,35.99,-62.7,57.22,40.12,-53.28,168.03,-56.92,-122.82,-32.73,-185.74,-111.14,3.45,168.72,58.76,85.02,199.04,-151.15,67.5,-32.17,-28.85,19.18,-1.43,-88.76,-51.96,-10.72
2481519,498_1,0.7583,9.33,533.83,231.17,57.69,-48.42,-63.05,21.52,26.8,-8.02,-152.68,86.91,-18.5,-1113.22,-57.86,22.68,-45.86,47.64,23.54,-53.8,21.81,-4.13,-141.4,-28.64,-186.59,-111.42,4.28,172.07,72.57,82.15,185.22,-248.89,107.96,-51.47,-27.56,17.68,-8.15,-69.69,-35.59,-8.49
2481520,498_1,0.7611,9.79,679.89,294.56,30.21,-28.3,-113.97,9.89,40.27,-12.05,-136.06,115.26,-1.65,-1070.79,-13.93,13.77,-28.82,36.89,2.53,-56.36,-153.3,59.97,-160.54,-22.38,-180.01,-112.34,5.0,169.27,85.77,77.57,166.75,-312.68,155.76,-73.61,-27.5,15.73,-15.23,-51.06,-16.22,-8.81
2481521,498_1,0.7639,7.26,810.23,351.07,4.56,-6.57,-160.31,-2.22,54.28,-16.25,-116.61,139.28,23.3,-959.16,27.11,7.96,-13.78,26.0,-19.29,-60.56,-354.62,134.53,-176.7,-15.19,-165.49,-113.46,5.45,160.25,96.81,71.26,146.88,-328.32,208.82,-97.47,-28.79,13.84,-21.74,-35.61,3.7,-10.68
2481522,498_1,0.7667,2.15,908.57,393.63,-15.6,14.57,-195.12,-13.47,66.82,-20.02,-96.61,156.03,52.39,-805.63,62.89,4.2,-2.73,15.68,-38.02,-65.12,-575.32,217.07,-186.65,-8.38,-142.16,-114.36,5.49,144.66,104.61,63.27,128.35,-292.03,264.67,-121.88,-31.29,12.58,-26.85,-25.69,21.89,-12.63
2481523,498_1,0.7694,-4.62,959.02,415.29,-27.62,33.14,-212.38,-22.88,75.69,-22.7,-78.44,163.98,81.27,-636.94,89.41,1.77,2.99,6.26,-50.27,-68.38,-800.99,302.13,-188.12,-3.19,-109.34,-114.71,4.99,122.26,108.7,53.94,112.9,-212.15,319.52,-145.17,-34.55,12.37,-29.88,-22.67,36.52,-13.09
2481524,498_1,0.7722,-11.97,947.42,409.87,-30.44,47.6,-208.24,-30.0,78.96,-23.69,-64.23,163.32,106.41,-471.66,103.05,0.16,3.05,-2.17,-53.72,-68.87,-1008.4,380.88,-180.35,-0.66,-67.15,-114.3,3.89,93.29,109.22,43.97,101.22,-107.11,367.43,-164.83,-37.87,13.33,-30.41,-26.58,46.26,-10.76
2481525,498_1,0.775,-19.01,863.57,372.91,-24.66,56.96,-181.72,-34.95,75.32,-22.59,-55.43,155.72,125.84,-317.32,102.82,-1.06,-1.9,-9.67,-47.43,-65.73,-1167.86,441.96,-164.16,-1.5,-17.06,-113.03,2.18,58.71,106.87,34.49,93.12,-0.09,400.32,-177.53,-40.48,15.21,-28.3,-36.16,50.38,-4.9
2481526,498_1,0.7778,-25.22,703.8,302.74,-12.27,60.78,-134.77,-38.31,64.26,-19.22,-52.6,143.71,139.21,-173.11,91.46,-2.28,-10.48,-16.28,-31.94,-58.88,-1249.04,473.69,-141.61,-5.92,38.12,-111.02,-0.08,20.26,102.67,26.83,87.78,87.76,409.14,-179.57,-41.61,17.52,-23.6,-49.23,48.77,4.43
2481527,498_1,0.7806,-30.38,472.98,201.37,3.97,59.05,-72.0,-40.94,46.1,-13.65,-55.33,129.99,147.18,-35.99,75.16,-3.86,-20.92,-22.03,-9.11,-48.96,-1228.48,466.89,-115.57,-13.49,94.62,-108.65,-2.77,-19.75,97.82,22.23,84.14,143.0,386.16,-167.81,-40.69,19.63,-16.64,-63.21,41.91,16.44
2481528,498_1,0.7833,-34.4,185.09,74.79,21.17,52.17,0.0,-43.72,22.0,-6.21,-62.31,116.74,150.7,92.99,61.95,-6.1,-31.52,-26.9,18.27,-37.09,-1096.67,417.69,-89.09,-23.12,148.42,-106.6,-5.73,-58.86,93.44,21.49,81.11,162.39,327.67,-140.83,-37.48,21.02,-7.95,-75.74,30.92,29.8
2481529,498_1,0.7861,-37.06,-137.71,-67.41,36.83,40.93,73.5,-47.35,-6.17,2.54,-71.64,105.28,150.45,205.34,59.29,-9.14,-40.93,-30.88,46.93,-24.7,-862.75,329.32,-64.9,-33.16,196.03,-105.69,-8.81,-94.91,90.46,24.7,77.8,151.41,236.23,-99.76,-32.16,21.4,1.68,-85.1,17.42,42.96
2481530,498_1,0.7889,-38.05,-467.5,-213.04,49.13,26.58,140.57,-52.2,-35.92,11.87,-81.16,96.07,146.59,286.05,71.66,-13.0,-48.25,-34.07,73.55,-13.35,-555.17,212.48,-45.16,-41.74,235.06,-106.73,-11.84,-126.23,89.49,31.23,73.62,120.18,121.32,-48.63,-25.35,20.72,11.3,-90.47,3.43,54.53
2481531,498_1,0.7917,-37.04,-774.11,-348.82,56.99,10.87,194.18,-58.29,-64.41,20.89,-88.87,88.9,138.98,318.4,99.07,-17.48,-53.03,-36.74,95.19,-4.56,-217.72,83.88,-31.29,-47.14,264.33,-110.29,-14.66,-151.66,90.76,39.84,68.25,78.84,-1.79,5.99,-18.04,19.18,19.86,-91.92,-8.9,63.51
2481532,498_1,0.7944,-33.88,-1029.42,-462.22,60.01,-4.05,229.27,-65.31,-88.89,28.74,-93.22,83.14,127.46,291.02,136.88,-22.18,-55.25,-39.35,109.66,0.5,98.58,-36.93,-23.88,-48.13,283.69,-116.56,-17.09,-170.35,94.06,48.96,61.58,34.34,-114.95,56.28,-11.41,17.03,26.43,-90.26,-17.61,69.4
2481533,498_1,0.7972,-28.76,-1211.6,-543.46,58.34,-15.88,243.48,-72.8,-107.13,34.7,-93.35,78.06,112.31,204.63,177.21,-26.52,-55.2,-42.49,115.69,1.29,346.06,-131.58,-22.73,-44.24,293.65,-125.25,-18.96,-181.61,98.72,57.04,53.5,-10.55,-201.04,94.8,-6.62,14.53,30.38,-86.79,-21.22,72.14
2481534,498_1,0.8,-22.22,-1308.76,-587.08,52.6,-22.66,237.54,-80.17,-117.88,38.37,-89.18,73.02,94.53,76.07,211.26,-29.85,-53.43,-46.69,113.04,-1.82,491.0,-187.04,-26.89,-35.71,294.95,-135.67,-20.07,-184.9,103.67,62.8,43.65,-56.6,-247.72,116.19,-4.59,11.85,31.49,-82.96,-18.95,71.97
2481535,498_1,0.8028,-15.12,-1320.95,-592.92,43.77,-23.21,214.89,-86.86,-121.11,39.71,-81.33,67.65,75.9,-62.5,231.82,-31.48,-50.62,-52.22,102.48,-7.47,521.17,-198.5,-34.84,-23.48,288.39,-146.86,-20.26,-179.98,107.58,65.46,31.29,-106.62,-250.1,118.36,-5.75,9.12,30.01,-80.06,-10.92,69.27
2481536,498_1,0.8056,-8.48,-1259.65,-565.95,32.92,-17.49,180.9,-92.36,-117.87,39.03,-70.9,61.96,58.77,-170.04,234.89,-30.82,-47.42,-58.89,85.65,-13.63,448.19,-170.36,-44.74,-8.93,274.65,-157.78,-19.44,-167.17,109.19,64.77,15.37,-163.65,-211.74,102.87,-10.06,6.44,26.58,-78.93,1.87,64.44
2481537,498_1,0.8083,-3.25,-1144.39,-514.76,20.99,-6.64,141.59,-96.31,-109.9,36.83,-59.29,56.29,45.49,-207.26,220.0,-27.29,-44.2,-65.98,64.74,-18.17,303.64,-114.74,-54.88,6.28,254.26,-167.36,-17.6,-147.39,107.62,60.89,-4.94,-229.06,-143.49,74.46,-16.96,3.98,22.08,-79.68,17.68,57.81
2481538,498_1,0.8111,-0.19,-997.24,-449.1,8.44,7.43,102.4,-98.59,-99.0,33.66,-47.9,51.26,37.72,-148.45,189.09,-20.39,-40.82,-72.4,42.15,-19.58,130.23,-48.12,-63.96,20.42,227.73,-174.65,-14.81,-122.12,102.68,54.28,-29.62,-300.65,-60.77,39.7,-25.58,1.88,17.41,-81.59,34.35,49.73
2481539,498_1,0.8139,0.35,-836.66,-377.14,-4.9,22.54,67.3,-99.38,-86.5,29.87,-37.88,47.56,35.84,10.14,144.91,-9.64,-36.58,-76.93,20.1,-17.53,-29.16,12.93,-71.43,31.8,195.67,-178.83,-11.24,-93.12,94.97,45.4,-57.16,-371.2,20.01,5.43,-34.9,0.28,13.35,-83.23,49.67,40.61
2481540,498_1,0.8167,-1.5,-673.35,-303.6,-19.8,36.94,38.3,-99.14,-72.95,25.57,-30.09,45.76,38.75,248.27,89.75,5.23,-30.33,-78.63,0.44,-13.02,-141.06,55.45,-77.42,38.92,159.08,-179.34,-7.13,-62.31,85.79,34.65,-84.34,-428.48,84.86,-22.67,-43.91,-0.77,10.45,-82.71,61.79,30.99
2481541,498_1,0.8194,-5.18,-509.79,-229.58,-37.22,49.66,15.63,-98.5,-58.14,20.61,-25.0,46.17,44.15,526.86,25.45,24.12,-20.82,-77.09,-15.6,-8.2,-187.21,72.38,-82.56,40.62,119.83,-175.89,-2.8,-31.78,76.84,22.35,-106.72,-457.5,124.61,-41.06,-51.74,-1.32,8.99,-78.13,69.55,21.6
2481542,498_1,0.8222,-9.9,-343.89,-154.18,-57.93,60.62,-1.9,-98.12,-41.44,14.71,-22.82,48.84,49.22,798.1,-45.55,46.23,-7.12,-72.58,-27.34,-5.61,-166.01,63.16,-87.57,36.21,80.84,-168.64,1.3,-3.84,69.88,8.92,-119.72,-444.65,136.06,-48.6,-57.73,-1.52,9.03,-68.07,72.6,13.26
2481543,498_1,0.825,-14.98,-174.97,-77.21,-81.98,70.35,-16.26,-98.46,-22.24,7.64,-23.61,53.52,51.31,1017.2,-118.79,69.86,11.0,-65.96,-34.63,-7.49,-90.54,32.96,-92.93,25.71,46.07,-158.2,4.61,18.79,66.3,-4.94,-120.02,-382.7,121.84,-46.38,-61.42,-1.51,10.47,-52.03,71.35,6.74
2481544,498_1,0.8278,-20.08,-9.18,-1.68,-108.47,79.51,-29.57,-99.66,-0.42,-0.67,-27.38,59.73,48.62,1152.58,-187.07,92.21,32.8,-58.39,-37.76,-15.02,15.71,-8.93,-98.64,9.91,19.9,-145.65,6.51,33.31,66.8,-18.16,-106.65,-274.58,89.37,-37.17,-62.57,-1.42,13.11,-30.57,66.78,2.53
2481545,498_1,0.8306,-25.34,138.65,65.47,-135.48,88.5,-43.48,-101.38,23.47,-9.97,-34.03,66.76,40.48,1192.07,-240.98,109.55,56.6,-50.97,-37.35,-28.05,124.44,-51.31,-104.17,-9.55,6.07,-132.45,6.48,37.41,71.24,-29.28,-81.49,-134.23,48.87,-24.64,-61.22,-1.34,16.7,-5.39,60.09,0.65
2481546,498_1,0.8333,-31.23,247.97,114.67,-160.26,97.15,-58.68,-102.83,48.12,-19.74,-43.24,73.66,27.41,1144.03,-270.8,117.75,79.97,-44.51,-34.16,-45.17,208.72,-83.51,-108.49,-30.35,6.4,-120.21,4.31,30.2,78.57,-36.75,-48.92,16.05,10.94,-12.47,-57.68,-1.31,20.94,20.9,52.43,0.7
2481547,498_1,0.8361,-38.27,299.13,136.78,-179.69,104.78,-74.72,-102.91,71.72,-29.24,-54.25,79.3,10.96,1033.14,-269.1,113.18,100.14,-39.37,-29.04,-64.21,248.74,-97.61,-110.3,-49.9,19.81,-110.5,0.28,13.06,87.11,-39.21,-14.73,150.99,-15.89,-3.6,-52.52,-1.34,25.54,45.13,44.65,1.86
2481548,498_1,0.8389,-46.73,280.83,126.56,-190.88,110.35,-90.02,-100.47,92.24,-37.62,-65.75,82.5,-6.7,892.24,-233.11,93.74,114.5,-35.44,-22.76,-82.88,235.66,-90.13,-108.26,-65.72,41.94,-104.55,-4.78,-10.09,94.9,-35.81,15.19,248.82,-27.08,0.36,-46.6,-1.49,30.18,64.12,37.17,3.15
2481549,498_1,0.8417,-56.41,195.29,85.06,-191.89,112.72,-102.37,-94.66,107.76,-44.06,-75.95,82.3,-23.26,752.1,-166.17,59.69,121.16,-32.31,-15.97,-99.35,172.86,-62.47,-101.39,-75.92,65.81,-103.1,-9.53,-33.24,100.16,-26.52,36.2,296.5,-22.81,-0.58,-40.89,-1.81,34.52,75.24,30.06,3.68
2481550,498_1,0.8444,-66.59,59.22,20.08,-182.22,110.87,-109.56,-85.33,116.64,-47.85,-82.89,78.21,-36.83,631.55,-77.78,13.95,119.39,-29.39,-9.15,-112.57,74.24,-20.4,-89.3,-79.54,83.36,-106.31,-12.46,-49.64,101.63,-12.23,45.72,292.46,-7.59,-4.99,-36.39,-2.37,38.27,76.96,23.11,2.85
2481551,498_1,0.8472,-76.03,-99.67,-55.34,-163.14,104.0,-110.05,-73.2,117.74,-48.47,-84.82,70.46,-46.47,530.64,17.59,-38.08,109.74,-26.15,-2.59,-122.26,-39.34,27.37,-72.39,-76.62,87.48,-113.72,-12.29,-53.56,98.82,5.15,43.7,246.15,11.1,-10.37,-33.92,-3.18,41.22,69.13,16.02,0.47
2481552,498_1,0.85,-83.17,-248.91,-125.86,-137.38,91.6,-103.37,-59.78,110.53,-45.64,-80.64,60.1,-52.41,428.69,102.53,-89.29,93.96,-22.15,3.64,-128.73,-144.61,70.97,-51.69,-68.12,74.0,-124.33,-8.36,-42.04,91.95,22.8,32.41,174.85,24.65,-13.82,-34.04,-4.17,43.2,52.97,8.53,-3.18
2481553,498_1,0.8528,-86.34,-358.12,-177.0,-108.57,73.54,-90.25,-47.07,95.13,-39.37,-70.14,48.8,-56.03,288.52,159.25,-132.0,74.51,-17.17,9.7,-132.49,-220.23,101.23,-28.68,-55.64,42.87,-136.84,-0.89,-15.8,81.75,37.41,15.84,98.71,25.4,-12.66,-36.91,-5.09,44.13,30.69,0.5,-7.43
2481554,498_1,0.8556,-84.01,-404.77,-197.93,-80.33,50.11,-72.23,-36.96,72.46,-29.97,-53.95,38.65,-59.35,66.86,172.61,-159.37,54.04,-11.17,15.94,-133.97,-250.69,111.38,-4.87,-41.05,-1.78,-149.8,9.05,20.85,69.21,45.7,-1.25,35.75,8.42,-5.17,-42.28,-5.63,44.01,5.02,-8.05,-11.37
2481555,498_1,0.8583,-75.15,-378.24,-183.5,-55.52,22.1,-51.22,-30.67,44.1,-18.09,-33.39,31.63,-64.42,-271.35,133.75,-166.98,34.82,-4.28,22.78,-133.34,-229.41,98.5,18.48,-26.21,-52.79,-161.9,19.76,61.15,55.35,45.18,-14.37,-2.12,-27.04,8.95,-49.55,-5.36,42.87,-21.33,-16.93,-14.08
2481556,498_1,0.8611,-59.49,-281.65,-135.17,-35.8,-9.16,-29.02,-28.49,12.3,-4.65,-10.27,29.23,-72.55,-738.67,43.5,-154.23,18.43,3.27,30.58,-130.49,-160.55,64.48,40.43,-12.71,-101.9,-172.14,29.37,97.72,41.12,34.9,-20.27,-10.95,-76.89,28.21,-57.79,-3.89,40.86,-46.0,-25.85,-14.92
2481557,498_1,0.8639,-37.81,-130.9,-60.67,-21.73,-41.87,-7.12,-29.72,-20.3,9.23,13.33,32.09,-83.76,-1315.34,-85.82,-124.59,5.81,11.28,39.45,-125.2,-58.9,16.07,60.28,-1.87,-141.88,-179.96,36.32,124.43,27.4,15.82,-17.56,5.65,-132.62,49.5,-65.87,-0.98,38.27,-67.03,-34.48,-13.77
2481558,498_1,0.8667,-11.95,49.23,27.89,-13.17,-73.9,13.23,-33.04,-50.89,22.34,35.15,39.76,-96.48,-1947.67,-231.76,-84.51,-2.61,19.62,49.03,-117.34,52.74,-36.17,77.33,5.42,-168.28,-185.25,39.74,137.79,15.17,-9.16,-6.75,38.52,-182.97,68.66,-72.63,3.39,35.51,-82.76,-42.48,-11.12
2481559,498_1,0.8694,15.39,230.96,116.92,-9.84,-103.03,30.83,-37.02,-76.8,33.53,52.97,50.76,-107.71,-2555.68,-366.53,-41.26,-6.59,28.23,58.47,-107.07,148.07,-79.92,90.72,8.63,-180.19,-188.25,39.58,137.55,5.51,-35.75,10.06,75.86,-216.41,81.39,-77.01,8.91,33.07,-91.76,-49.56,-8.03
2481560,498_1,0.8722,41.11,389.74,194.37,-11.69,-127.17,44.24,-40.63,-95.86,41.82,64.84,62.82,-113.6,-3049.37,-463.95,-0.54,-5.93,37.02,66.56,-94.92,202.75,-103.66,99.46,7.74,-179.97,-189.42,36.62,126.33,-0.47,-59.27,29.92,106.17,-223.88,84.26,-78.23,15.02,31.44,-92.8,-55.47,-5.81
2481561,498_1,0.875,62.18,508.94,252.1,-18.98,-144.69,51.91,-43.55,-106.64,46.58,69.39,73.31,-110.5,-3349.76,-506.5,34.84,-0.46,45.84,72.05,-81.69,199.71,-99.21,102.71,3.22,-172.04,-189.26,32.11,108.6,-1.89,-75.67,49.82,120.67,-201.01,75.54,-76.01,20.98,30.94,-85.18,-60.02,-5.61
2481562,498_1,0.8778,76.23,581.72,286.84,-32.05,-154.62,52.47,-46.17,-108.76,47.61,66.11,79.84,-96.08,-3408.67,-489.73,64.83,9.86,54.3,74.0,-68.3,133.35,-63.86,100.06,-3.99,-161.23,-188.15,27.41,89.23,1.61,-82.46,67.37,114.93,-149.36,55.75,-70.57,25.98,31.69,-68.97,-63.1,-7.95
2481563,498_1,0.8806,81.82,609.72,299.47,-50.92,-156.78,45.3,-49.33,-102.89,45.17,55.5,80.71,-70.02,-3219.32,-422.51,90.75,24.74,61.77,72.2,-55.6,11.78,-1.61,91.86,-12.73,-151.18,-186.3,23.55,72.13,9.6,-79.17,81.04,89.58,-76.4,27.68,-62.7,29.36,33.54,-45.23,-64.74,-12.56
2481564,498_1,0.8833,78.54,599.41,293.25,-75.02,-151.7,30.96,-53.92,-90.62,39.91,38.91,75.35,-33.94,-2813.26,-323.55,113.47,43.5,67.47,67.23,-44.2,-143.68,77.03,79.3,-21.83,-143.34,-183.7,20.92,59.22,20.91,-67.25,90.19,49.9,5.8,-4.11,-53.56,30.69,36.2,-16.02,-65.07,-18.34
2481565,498_1,0.8861,66.87,558.01,271.82,-103.01,-140.51,11.26,-60.52,-74.14,32.78,18.15,64.35,9.46,-2245.78,-215.96,132.18,64.98,70.62,60.31,-34.37,-302.14,156.75,64.27,-30.42,-136.56,-180.18,19.11,50.03,33.8,-49.51,94.76,4.18,83.06,-34.15,-44.42,29.88,39.31,15.93,-64.34,-23.81
2481566,498_1,0.8889,47.89,490.6,237.68,-132.8,-124.7,-11.13,-69.16,-55.75,24.75,-4.92,49.32,57.45,-1578.11,-121.89,144.13,87.57,70.67,52.97,-26.06,-429.18,220.39,49.1,-38.04,-127.64,-175.59,16.98,41.91,46.43,-29.37,94.83,-38.75,142.12,-57.27,-36.35,27.12,42.62,47.61,-62.83,-27.59
2481567,498_1,0.8917,23.06,399.31,191.85,-161.84,-105.95,-33.34,-79.33,-37.48,16.71,-28.75,32.62,107.73,-865.58,-58.47,145.42,109.36,67.51,46.61,-18.84,-494.45,252.75,36.16,-44.65,-112.44,-169.93,12.95,30.93,57.24,-9.98,90.3,-72.47,173.6,-69.75,-29.98,22.9,46.04,76.23,-60.84,-28.92
2481568,498_1,0.8944,-5.92,284.42,134.35,-187.44,-86.01,-53.17,-90.14,-20.8,9.27,-52.08,16.87,158.04,-156.28,-34.96,132.77,128.31,61.61,42.07,-12.05,-478.97,244.31,27.45,-50.43,-87.25,-163.49,5.44,13.03,65.32,6.29,80.73,-95.12,174.33,-70.21,-25.44,17.85,49.58,99.56,-58.6,-27.92
2481569,498_1,0.8972,-37.05,146.54,65.32,-207.18,-66.61,-69.7,-100.58,-6.42,2.74,-73.71,4.58,205.18,501.67,-51.11,105.66,142.51,53.98,39.52,-4.91,-380.26,193.82,24.3,-55.53,-50.11,-156.89,-6.68,-14.76,70.55,18.17,65.46,-110.09,148.07,-59.93,-22.38,12.67,53.28,116.16,-56.28,-25.58
2481570,498_1,0.9,-68.07,-10.95,-13.73,-219.31,-49.33,-83.46,-109.72,5.63,-2.9,-92.28,-2.18,243.93,1051.23,-96.69,68.03,150.53,45.94,38.49,3.18,-213.71,109.07,27.11,-59.94,-1.49,-150.99,-23.77,-53.41,73.55,25.44,43.95,-124.59,104.71,-42.55,-20.25,7.95,57.11,125.45,-54.03,-23.34
2481571,498_1,0.9028,-96.57,-179.82,-98.84,-223.15,-35.34,-96.04,-116.95,15.87,-7.89,-106.11,-2.12,267.0,1424.15,-152.76,28.89,151.74,38.84,38.2,12.37,-9.28,5.2,35.4,-63.46,55.66,-146.64,-45.18,-101.47,75.42,28.66,16.29,-146.47,57.65,-23.08,-18.46,4.13,60.9,127.71,-51.96,-22.57
2481572,498_1,0.9056,-120.24,-346.06,-183.06,-219.18,-25.17,-109.15,-121.91,25.06,-12.58,-113.51,5.13,266.49,1550.66,-195.21,0.78,146.57,33.57,37.93,22.21,196.08,-99.08,47.86,-65.83,116.39,-144.35,-69.27,-155.17,77.37,28.77,-16.45,-180.55,20.19,-6.54,-16.66,1.4,64.34,123.96,-50.16,-23.99
2481573,498_1,0.9083,-137.09,-490.45,-256.63,-209.03,-18.47,-123.55,-124.54,33.83,-17.23,-113.21,18.87,236.52,1380.82,-200.95,-3.67,136.53,30.37,37.41,31.65,368.14,-186.45,62.76,-66.9,174.79,-144.02,-93.64,-209.0,80.33,26.69,-52.11,-225.97,1.7,3.42,-14.75,-0.25,67.1,115.85,-48.66,-27.24
2481574,498_1,0.9111,-145.66,-591.02,-308.18,-195.24,-14.03,-138.22,-124.95,42.33,-21.84,-104.8,37.37,176.35,909.88,-155.32,23.76,124.01,28.65,37.01,39.22,484.08,-245.33,78.21,-66.84,225.05,-144.82,-115.51,-256.69,84.67,23.1,-87.64,-275.84,4.88,5.51,-12.92,-1.05,68.88,105.44,-47.47,-30.89
2481575,498_1,0.9139,-144.99,-627.43,-326.99,-180.84,-10.1,-150.19,-123.43,50.02,-26.05,-89.05,58.03,92.3,195.28,-58.16,83.1,111.91,27.28,37.7,43.44,536.91,-272.2,92.49,-66.12,262.38,-145.35,-132.14,-292.28,90.06,18.32,-119.62,-319.49,25.2,0.97,-11.52,-1.35,69.49,94.92,-46.61,-32.71
2481576,498_1,0.9167,-134.5,-586.62,-305.93,-168.87,-4.95,-155.16,-120.44,55.67,-29.18,-67.8,77.87,-2.72,-646.46,74.51,164.69,103.07,24.98,40.71,43.14,534.19,-270.83,104.32,-65.39,283.6,-144.04,-141.37,-311.15,95.64,12.47,-144.86,-346.38,52.9,-7.15,-10.96,-1.53,68.88,86.31,-46.23,-30.32
2481577,498_1,0.9194,-114.1,-468.52,-244.55,-161.83,2.57,-148.71,-116.61,57.7,-30.31,-43.64,94.06,-92.12,-1465.49,214.5,250.57,99.73,20.79,47.13,37.84,491.82,-249.21,112.93,-65.2,287.34,-139.58,-141.92,-310.82,100.29,5.65,-160.93,-350.0,76.81,-15.17,-11.57,-1.94,67.13,81.15,-46.54,-21.92
2481578,498_1,0.9222,-84.43,-289.4,-150.95,-161.22,12.6,-127.82,-112.61,54.62,-28.64,-19.39,104.54,-160.2,-2117.65,329.88,318.41,102.98,14.46,57.39,27.85,425.7,-215.33,118.18,-65.68,274.04,-131.33,-133.69,-291.38,103.05,-1.83,-166.55,-330.31,88.6,-20.2,-13.59,-2.81,64.42,80.2,-47.88,-6.96
2481579,498_1,0.925,-47.38,-81.31,-41.62,-167.18,24.25,-92.13,-109.01,45.71,-23.77,2.41,108.33,-196.22,-2500.19,394.59,347.17,112.5,6.5,70.94,14.32,344.9,-173.78,120.57,-66.34,245.97,-119.51,-117.81,-255.55,103.31,-9.36,-161.83,-293.99,85.91,-21.0,-17.05,-4.26,61.02,83.24,-50.48,13.47
2481580,498_1,0.9278,-6.31,113.08,61.24,-178.42,35.91,-44.57,-106.1,31.44,-15.94,19.9,105.51,-196.65,-2569.83,395.76,322.85,126.49,-1.95,86.18,-0.94,249.26,-124.55,121.15,-65.99,207.21,-105.15,-96.59,-208.48,101.08,-16.08,-148.19,-252.53,73.12,-18.23,-21.8,-6.33,57.28,89.03,-54.35,36.75
2481581,498_1,0.9306,34.21,248.89,134.2,-192.4,45.76,9.12,-103.8,13.56,-6.11,32.13,96.94,-164.99,-2339.51,336.58,242.85,142.02,-9.54,100.69,-15.82,132.59,-64.65,121.37,-63.14,163.33,-89.89,-73.19,-157.01,96.89,-21.11,-128.15,-218.69,59.4,-13.97,-27.5,-8.93,53.6,95.6,-59.12,59.19
2481582,498_1,0.9333,69.29,288.76,157.79,-205.93,52.35,61.6,-101.74,-5.23,4.23,38.94,83.95,-109.83,-1860.08,234.53,117.14,155.7,-15.06,111.78,-28.34,-9.96,8.23,122.72,-56.42,120.82,-75.61,-51.17,-108.6,91.72,-23.72,-104.89,-202.51,54.88,-10.7,-33.64,-11.95,50.42,100.63,-64.06,76.88
2481583,498_1,0.9361,94.83,211.06,120.81,-215.92,54.95,105.78,-99.44,-21.99,13.46,40.77,68.0,-41.97,-1197.53,116.63,-33.96,164.41,-17.83,117.14,-37.16,-174.18,91.86,126.36,-45.19,85.83,-64.04,-33.73,-69.95,86.77,-23.56,-81.65,-207.87,66.26,-10.27,-39.63,-15.13,48.09,102.11,-68.17,86.59
2481584,498_1,0.9389,108.64,14.59,22.84,-220.19,53.73,136.52,-96.64,-34.33,20.23,38.29,50.61,28.3,-414.57,13.5,-184.88,166.08,-17.81,115.36,-41.8,-342.72,177.43,132.85,-29.87,62.68,-56.37,-23.06,-45.53,83.19,-20.73,-61.22,-230.97,93.86,-13.21,-44.85,-18.17,46.86,98.85,-70.34,86.56
2481585,498_1,0.9417,110.86,-281.47,-125.96,-217.89,49.61,151.51,-93.4,-40.91,23.8,32.22,33.32,93.07,438.63,-46.44,-311.19,160.08,-15.51,106.32,-42.68,-487.35,250.65,142.07,-11.95,52.39,-52.95,-19.61,-36.34,81.92,-15.77,-45.54,-261.27,131.23,-18.59,-48.76,-20.66,46.82,90.71,-69.64,76.77
2481586,498_1,0.9444,103.71,-641.96,-307.27,-209.61,43.92,151.41,-90.14,-41.67,24.11,23.17,17.67,147.66,1323.82,-42.12,-395.57,147.22,-11.82,91.01,-40.97,-577.19,295.92,153.31,6.42,51.8,-53.18,-21.84,-39.32,83.52,-9.58,-35.6,-284.67,167.63,-24.52,-51.03,-22.15,47.84,78.55,-65.51,58.8
2481587,498_1,0.9472,90.74,-1022.72,-498.41,-197.03,37.97,138.98,-87.47,-37.59,21.7,11.68,5.13,190.2,2206.34,36.21,-431.68,129.37,-7.61,71.29,-38.24,-589.27,301.6,165.66,23.01,53.94,-55.59,-26.41,-47.84,88.24,-3.27,-31.51,-287.93,191.91,-28.97,-51.61,-22.28,49.68,63.88,-57.9,35.26
2481588,498_1,0.95,75.62,-1377.88,-676.14,-182.37,32.65,117.93,-85.96,-30.16,17.38,-1.6,-3.03,220.54,3043.58,184.54,-424.75,108.9,-3.49,49.33,-36.2,-517.05,264.38,178.17,36.07,49.71,-58.26,-29.02,-53.4,96.11,2.1,-32.73,-262.76,196.12,-30.47,-50.72,-20.86,52.01,48.41,-47.36,9.0
2481589,498_1,0.9528,61.12,-1665.87,-819.78,-167.88,28.32,91.76,-85.93,-20.82,11.92,-15.95,-5.93,238.96,3776.47,384.78,-388.49,88.21,0.33,27.18,-36.56,-373.41,190.83,190.11,44.68,30.62,-59.21,-25.67,-48.04,107.15,5.71,-38.25,-208.43,177.37,-28.42,-48.79,-17.96,54.57,33.75,-34.99,-17.46
2481590,498_1,0.9556,48.46,-1853.87,-913.28,-155.42,24.79,63.04,-87.43,-10.58,5.86,-30.54,-3.24,245.32,4330.22,607.08,-339.88,69.38,4.1,6.53,-40.94,-187.45,95.81,200.89,48.76,-8.45,-57.02,-13.93,-26.86,121.56,7.28,-46.73,-132.16,137.54,-23.16,-46.32,-13.96,57.21,21.18,-22.33,-42.38
2481591,498_1,0.9583,37.23,-1921.35,-946.87,-146.26,21.55,33.18,-90.21,0.12,-0.62,-44.61,4.7,239.09,4628.09,815.09,-293.67,53.95,8.33,-11.53,-50.9,3.0,-1.34,210.0,48.9,-67.34,-51.16,6.24,10.41,139.74,7.18,-56.64,-47.59,81.75,-15.55,-43.69,-9.49,59.92,11.73,-11.07,-64.88
2481592,498_1,0.9611,25.96,-1863.04,-918.27,-141.06,17.99,2.65,-93.83,11.28,-7.54,-57.55,16.87,220.03,4615.07,973.62,-258.77,42.92,13.63,-26.47,-67.6,160.96,-81.72,216.88,46.06,-140.53,-42.13,32.46,59.32,162.11,6.29,-66.36,28.22,16.46,-6.69,-41.13,-5.32,62.83,6.17,-2.75,-84.82
2481593,498_1,0.9639,13.06,-1690.47,-833.36,-139.87,13.74,-28.53,-97.67,23.05,-15.02,-68.93,31.69,189.09,4280.66,1056.85,-237.19,36.79,20.4,-38.3,-91.32,259.7,-131.77,220.93,41.3,-218.58,-31.32,60.57,112.06,188.74,5.82,-74.42,78.52,-52.03,2.42,-38.63,-2.17,66.07,5.02,1.59,-102.48
2481594,498_1,0.9667,-2.18,-1430.4,-705.36,-142.23,8.84,-60.18,-101.0,35.42,-23.05,-78.3,47.25,148.86,3668.38,1053.62,-225.15,35.59,28.65,-47.38,-120.81,289.87,-146.95,221.56,35.57,-290.6,-20.47,85.86,159.67,218.76,6.85,-79.77,90.87,-118.14,11.02,-36.07,-0.57,69.66,8.51,1.65,-118.21
2481595,498_1,0.9694,-19.03,-1119.35,-552.19,-147.32,3.91,-91.54,-103.04,47.99,-31.33,-85.02,61.64,103.37,2866.28,967.43,-215.03,39.0,37.85,-54.21,-152.69,262.06,-133.14,218.37,29.47,-346.66,-11.15,104.17,194.28,249.87,10.04,-82.02,60.31,-176.94,18.6,-33.28,-0.84,73.48,16.53,-2.08,-132.1
2481596,498_1,0.9722,-35.26,-795.3,-392.4,-154.24,0.19,-120.96,-103.06,59.95,-39.32,-88.12,73.29,57.24,1984.33,811.54,-197.45,46.56,46.95,-59.27,-181.37,203.05,-104.65,211.11,23.24,-379.72,-4.24,112.84,210.82,278.1,15.46,-81.58,-8.95,-223.56,24.83,-30.2,-3.0,77.21,28.62,-8.44,-143.75
2481597,498_1,0.975,-47.75,-489.95,-241.53,-162.26,-0.7,-146.01,-100.6,70.21,-46.26,-86.47,81.23,14.83,1129.44,603.07,-163.32,57.82,54.52,-62.8,-199.69,146.24,-79.12,199.81,16.68,-386.59,0.29,111.08,207.78,298.05,22.6,-79.45,-104.12,-252.69,29.38,-26.97,-6.86,80.42,44.12,-15.86,-152.25
2481598,498_1,0.9778,-53.49,-224.31,-109.9,-171.08,3.0,-163.88,-95.61,77.69,-51.43,-79.19,85.25,-20.57,386.09,359.38,-106.31,72.46,59.08,-64.73,-200.38,119.73,-71.16,184.71,9.29,-368.0,3.33,99.94,187.1,303.83,30.6,-76.97,-206.53,-258.84,31.92,-23.94,-12.14,82.62,62.18,-22.78,-156.33
2481599,498_1,0.9806,-50.72,-8.59,-2.59,-180.76,12.66,-172.08,-88.54,81.59,-54.27,-66.18,85.92,-47.33,-194.44,97.94,-25.45,90.22,59.43,-64.72,-178.14,137.35,-87.53,166.4,0.51,-328.19,6.3,81.89,153.43,290.63,38.5,-75.32,-295.5,-237.77,32.1,-21.6,-18.46,83.4,81.88,-27.99,-154.69
2481600,498_1,0.9833,-39.92,155.07,79.21,-191.47,28.68,-169.18,-80.27,81.66,-54.58,-48.52,84.44,-65.71,-596.93,-162.06,73.28,110.64,55.03,-62.26,-131.72,196.45,-125.89,145.93,-10.0,-273.91,10.67,60.23,112.91,256.45,45.47,-75.07,-352.54,-188.88,29.84,-20.51,-25.47,82.52,102.12,-30.94,-146.47
2481601,498_1,0.9861,-23.97,269.19,136.6,-203.11,50.06,-155.53,-71.88,78.2,-52.55,-28.54,82.31,-77.82,-838.39,-398.84,177.43,132.78,46.24,-56.9,-65.23,282.27,-177.39,124.9,-22.05,-213.13,17.48,38.3,71.84,203.58,50.88,-75.98,-364.77,-117.22,25.47,-21.09,-32.78,79.99,121.53,-31.86,-131.62
2481602,498_1,0.9889,-7.65,338.8,171.91,-215.05,74.23,-133.37,-64.43,71.97,-48.65,-9.41,80.99,-87.18,-959.01,-589.95,271.23,155.11,34.4,-48.46,12.1,375.56,-230.93,105.4,-34.83,-153.71,27.02,18.87,35.41,138.95,54.36,-76.93,-327.17,-33.62,19.71,-23.56,-39.99,76.02,138.56,-31.66,-111.14
2481603,498_1,0.9917,3.75,370.55,188.3,-226.09,97.43,-106.55,-58.73,63.99,-43.56,5.67,81.48,-97.8,-1009.94,-716.46,340.16,175.6,21.61,-37.21,87.73,459.02,-276.93,89.64,-46.97,-102.08,38.82,3.65,6.8,73.11,55.72,-76.26,-243.47,47.56,13.58,-27.76,-46.68,71.03,151.69,-31.71,-87.06
2481604,498_1,0.9944,5.97,372.42,189.61,-234.78,115.52,-79.63,-55.27,55.27,-37.92,14.24,84.2,-113.15,-1040.62,-767.91,375.1,192.11,10.26,-23.9,148.64,520.25,-308.87,79.47,-56.83,-62.36,51.85,-6.87,-13.07,18.1,54.96,-72.21,-125.4,112.26,8.05,-33.11,-52.42,65.51,159.78,-33.38,-62.07
2481605,498_1,0.9972,-2.96,352.9,179.98,-239.9,124.9,-56.72,-54.18,46.6,-32.27,15.22,88.9,-135.08,-1088.61,-745.26,374.37,202.89,2.56,-9.77,184.26,551.71,-323.16,75.9,-62.89,-36.26,64.79,-13.19,-25.17,-15.33,52.22,-63.51,9.32,150.31,3.92,-38.69,-56.8,59.99,162.45,-37.67,-39.11
2481606,498_1,1.0,-22.22,319.69,163.21,-240.85,123.53,-40.39,-55.32,38.45,-26.89,8.95,94.85,-163.29,-1173.51,-660.75,343.08,207.08,0.03,3.73,188.37,549.76,-318.35,78.77,-64.11,-23.46,76.47,-16.43,-31.55,-19.93,47.81,-49.94,139.93,157.46,1.61,-43.39,-59.57,54.9,160.33,-44.93,-20.73
2481607,498_1,1.0028,-48.5,278.6,142.15,-237.91,111.39,-31.01,-58.37,30.88,-21.81,-3.03,101.08,-195.25,-1295.95,-534.98,290.61,204.91,3.2,15.25,159.78,514.17,-294.83,86.75,-60.24,-22.36,86.12,-17.75,-34.38,6.73,42.18,-32.66,245.99,135.36,1.26,-46.11,-60.61,50.59,154.92,-54.79,-8.63
2481608,498_1,1.0056,-76.94,233.25,118.65,-232.17,90.62,-26.62,-62.96,23.63,-16.83,-18.61,106.66,-226.89,-1440.82,-392.7,227.39,197.72,11.45,23.9,101.83,448.48,-254.91,97.7,-51.95,-30.76,93.54,-18.05,-35.35,62.21,35.79,-14.21,310.79,89.87,2.69,-46.06,-60.03,47.24,148.33,-66.27,-3.24
2481609,498_1,1.0083,-102.29,186.01,93.95,-225.3,65.02,-23.61,-68.77,16.2,-11.57,-35.68,110.77,-253.66,-1583.72,-258.7,162.4,187.61,23.17,29.53,21.21,360.04,-202.82,109.17,-40.73,-46.16,99.2,-17.85,-35.34,140.02,29.06,1.81,324.16,28.85,5.5,-42.97,-58.14,44.91,142.69,-78.04,-3.62
2481610,498_1,1.0111,-119.98,139.31,69.38,-218.98,39.31,-17.71,-75.49,8.07,-5.68,-52.59,112.82,-271.69,-1698.58,-154.28,101.54,176.93,36.03,32.79,-73.33,259.13,-144.23,119.05,-28.69,-65.89,104.14,-17.32,-34.64,230.94,22.26,11.6,284.3,-39.82,9.19,-37.11,-55.41,43.53,139.69,-88.7,-7.67
2481611,498_1,1.0139,-126.94,96.38,46.73,-214.53,18.11,-5.4,-82.81,-1.11,1.11,-68.38,112.43,-278.5,-1764.22,-94.58,47.28,167.75,47.52,34.88,-172.1,156.98,-85.14,126.05,-18.07,-87.15,109.71,-16.47,-33.23,324.44,15.56,12.15,198.31,-109.31,13.19,-29.27,-52.38,42.96,140.13,-96.99,-12.69
2481612,498_1,1.0167,-121.95,60.85,27.97,-212.57,4.95,15.09,-90.33,-11.35,8.78,-82.65,109.37,-273.25,-1768.23,-86.94,-0.97,161.4,55.43,37.17,-265.42,63.17,-30.58,129.88,-10.75,-107.14,117.31,-15.3,-31.08,409.94,9.05,2.28,80.94,-174.08,16.95,-20.55,-49.58,43.03,143.83,-102.1,-16.1
2481613,498_1,1.0194,-105.65,35.17,14.49,-212.97,1.5,43.18,-97.53,-22.27,17.05,-95.35,103.56,-256.28,-1707.39,-130.61,-45.81,158.33,58.34,40.7,-344.38,-16.44,16.58,131.18,-7.81,-123.37,127.99,-13.86,-28.32,477.97,2.83,-16.75,-48.14,-229.72,19.95,-12.09,-47.39,43.58,149.8,-103.66,-16.09
2481614,498_1,1.0222,-80.1,19.09,6.24,-214.97,7.42,76.07,-103.83,-33.16,25.37,-106.45,95.06,-228.39,-1584.95,-217.51,-90.51,158.09,55.88,45.91,-401.6,-80.46,55.9,131.14,-9.27,-134.08,142.19,-12.25,-25.23,521.21,-2.99,-41.28,-168.17,-272.57,21.75,-4.85,-46.03,44.49,156.57,-101.83,-12.07
2481615,498_1,1.025,-48.21,9.1,1.47,-217.5,20.55,109.43,-108.68,-43.12,33.04,-115.64,84.12,-189.96,-1405.98,-333.18,-137.75,159.63,48.73,52.45,-431.94,-131.16,88.95,131.06,-14.19,-138.43,159.68,-10.63,-22.13,535.33,-8.24,-65.91,-261.18,-299.5,22.08,0.57,-45.49,45.62,162.59,-97.18,-4.64
2481616,498_1,1.0278,-12.9,-0.41,-2.62,-219.44,37.65,138.41,-111.67,-51.19,39.32,-122.32,71.1,-140.34,-1172.46,-457.39,-188.51,161.64,38.28,59.39,-432.9,-172.46,118.08,131.97,-20.85,-136.47,179.59,-9.12,-19.43,519.59,-12.83,-84.68,-315.03,-307.73,20.82,3.98,-45.63,46.8,166.59,-90.48,4.71
2481617,498_1,1.0306,23.74,-14.99,-8.69,-219.91,55.21,158.61,-112.56,-56.55,43.56,-125.52,56.42,-77.65,-880.44,-564.74,-241.56,162.86,26.28,65.37,-404.76,-207.85,145.18,134.38,-27.23,-128.84,200.72,-7.92,-17.61,476.8,-16.75,-92.28,-324.85,-294.75,18.05,5.54,-46.19,47.79,167.76,-82.56,14.07
2481618,498_1,1.0333,61.0,-37.95,-18.1,-218.38,70.15,166.92,-111.32,-58.7,45.36,-124.09,40.42,0.84,-521.1,-626.61,-293.6,162.33,14.46,69.0,-350.42,-238.58,170.49,138.33,-31.37,-116.56,221.86,-7.21,-17.17,412.82,-20.17,-85.13,-292.82,-258.74,14.01,5.6,-46.9,48.34,165.8,-74.16,21.55
2481619,498_1,1.0361,99.69,-69.46,-30.44,-214.75,80.22,161.97,-108.11,-57.62,44.67,-116.83,23.3,97.62,-86.08,-615.4,-340.35,159.52,4.21,69.08,-275.0,-262.3,191.75,143.49,-31.7,-100.97,242.03,-7.15,-18.5,335.53,-23.37,-62.11,-226.75,-199.49,9.05,4.55,-47.57,48.26,160.78,-65.87,25.58
2481620,498_1,1.0389,141.7,-107.23,-44.08,-209.25,84.12,144.37,-103.25,-53.87,41.92,-102.65,5.16,213.47,423.94,-510.79,-378.14,154.34,-3.47,64.88,-185.4,-272.39,203.64,149.46,-27.28,-83.7,260.68,-7.75,-21.61,253.51,-26.73,-24.8,-138.01,-119.85,3.68,2.62,-48.1,47.43,152.99,-58.17,25.19
2481621,498_1,1.0417,188.99,-148.1,-57.21,-202.33,81.54,116.68,-97.27,-48.56,38.01,-80.84,-13.85,345.93,990.32,-306.54,-405.16,147.04,-8.09,56.36,-89.85,-258.4,198.08,155.97,-18.0,-66.68,277.72,-8.86,-26.08,174.99,-30.64,22.69,-39.23,-26.9,-1.55,-0.1,-48.48,45.94,142.79,-51.48,20.07
2481622,498_1,1.0444,242.45,-189.07,-68.64,-194.5,73.08,83.06,-90.85,-43.2,34.12,-51.37,-33.34,488.2,1570.51,-15.49,-421.72,138.11,-9.6,44.31,2.84,-208.19,165.83,162.98,-4.67,-51.86,293.43,-10.16,-31.08,106.87,-35.43,74.58,57.96,68.07,-5.95,-3.72,-48.76,44.05,130.57,-46.2,10.72
2481623,498_1,1.0472,300.84,-226.73,-77.81,-186.16,60.03,48.65,-84.76,-39.35,31.5,-15.23,-52.47,628.99,2098.48,329.16,-429.24,128.15,-8.31,30.27,84.17,-112.02,99.52,170.68,11.15,-40.87,308.3,-11.33,-35.66,54.2,-41.29,124.43,144.98,151.13,-8.88,-8.37,-49.03,42.2,116.68,-42.7,-1.69
2481624,498_1,1.05,360.37,-255.04,-83.93,-177.37,44.17,18.69,-79.7,-38.23,31.18,25.27,-69.92,753.64,2493.65,677.63,-428.27,117.68,-4.73,16.34,147.12,32.83,-2.86,179.44,27.38,-34.66,322.81,-12.09,-39.04,19.8,-48.22,166.55,217.46,208.71,-9.71,-14.04,-49.28,40.94,101.52,-41.35,-15.55
2481625,498_1,1.0528,415.09,-262.55,-84.66,-167.85,27.42,-2.46,-76.13,-40.53,33.67,66.55,-84.03,846.61,2678.27,972.33,-416.95,107.03,0.53,4.72,187.36,218.5,-135.42,189.67,41.97,-33.38,337.3,-12.31,-40.78,4.1,-56.03,197.0,275.26,231.11,-8.07,-20.5,-49.49,40.86,85.52,-42.41,-29.11
2481626,498_1,1.0556,458.02,-230.82,-75.38,-157.07,11.54,-12.09,-74.07,-46.18,38.97,104.18,-93.09,894.87,2599.96,1160.1,-390.69,96.34,6.8,-2.75,203.89,425.55,-283.82,201.67,53.29,-36.44,351.98,-12.03,-40.76,5.3,-64.32,214.15,321.13,215.28,-3.96,-27.23,-49.53,42.4,69.21,-45.91,-40.85
2481627,498_1,1.0583,482.77,-135.6,-49.44,-144.5,-2.13,-9.61,-73.15,-54.56,46.55,133.68,-95.74,891.21,2251.56,1204.49,-343.86,85.58,13.41,-5.0,199.14,625.37,-427.2,215.44,60.52,-42.79,366.94,-11.34,-39.05,19.75,-72.46,218.58,358.47,166.03,2.11,-33.5,-49.32,45.76,53.23,-51.56,-49.71
2481628,498_1,1.0611,485.17,48.94,0.41,-129.93,-12.71,3.54,-72.69,-64.63,55.55,151.57,-91.35,836.48,1679.63,1093.87,-272.41,74.79,19.65,-1.94,178.33,785.53,-542.24,230.61,63.76,-51.22,382.27,-10.34,-35.66,42.78,-79.72,212.51,389.44,95.15,9.01,-38.53,-48.82,50.77,38.31,-58.72,-55.17
2481629,498_1,1.0639,464.25,343.38,79.78,-113.65,-19.75,24.36,-71.93,-75.24,65.04,156.13,-80.24,739.59,976.31,842.44,-176.25,64.13,24.72,5.6,148.16,877.2,-608.52,246.38,63.81,-60.59,398.08,-9.05,-30.51,69.56,-85.32,198.97,413.94,18.79,15.18,-41.63,-48.12,56.94,25.27,-66.4,-57.17
2481630,498_1,1.0667,422.5,755.7,190.46,-96.63,-23.01,48.96,-70.35,-85.26,74.05,147.76,-63.71,615.53,257.81,484.37,-59.91,54.02,27.82,16.23,115.37,882.56,-613.71,261.57,61.79,-69.73,414.48,-7.48,-23.6,96.07,-88.64,181.05,429.98,-46.43,18.88,-42.38,-47.39,63.52,14.87,-73.44,-55.92
2481631,498_1,1.0694,365.25,1275.61,328.9,-80.31,-22.34,73.36,-67.93,-93.7,81.73,128.79,-43.79,481.8,-361.92,63.88,68.53,45.09,28.19,28.35,85.38,799.93,-556.95,274.82,58.74,-77.39,431.44,-5.63,-15.31,119.67,-89.42,161.35,434.81,-87.38,18.67,-40.77,-46.87,69.68,7.7,-78.71,-51.74
2481632,498_1,1.0722,299.5,1872.45,486.09,-66.32,-17.61,94.05,-65.13,-99.68,87.31,102.82,-22.89,354.63,-793.56,-374.79,199.62,38.04,25.31,40.54,61.49,644.58,-449.32,284.84,55.39,-82.1,448.72,-3.58,-6.69,139.18,-87.86,141.7,426.26,-97.41,13.9,-37.22,-46.8,74.75,4.0,-81.31,-45.06
2481633,498_1,1.075,232.46,2496.59,648.33,-56.12,-8.86,108.44,-62.82,-102.5,90.14,73.89,-3.28,245.84,-986.11,-794.35,324.29,33.39,19.14,51.63,44.69,444.82,-310.8,290.64,52.06,-82.33,465.68,-1.47,0.59,154.65,-84.66,123.06,403.51,-77.36,4.89,-32.48,-47.31,78.34,3.52,-80.82,-36.49
2481634,498_1,1.0778,170.34,3083.54,798.65,-50.64,3.45,115.02,-61.97,-101.67,89.75,45.69,13.3,161.09,-931.33,-1166.52,434.39,31.29,10.18,60.8,34.1,234.63,-165.17,291.82,48.94,-76.88,481.36,0.47,4.58,166.78,-80.89,105.67,367.23,-34.6,-7.02,-27.47,-48.39,80.4,5.55,-77.36,-26.96
2481635,498_1,1.0806,117.36,3559.79,918.41,-50.06,18.26,113.36,-63.28,-96.99,85.93,20.88,25.88,99.71,-660.27,-1469.63,521.91,31.42,-0.43,67.38,27.8,45.61,-34.35,288.59,46.21,-65.44,494.57,2.04,3.77,176.37,-77.71,89.33,319.26,19.53,-19.81,-23.05,-49.91,81.18,9.01,-71.59,-17.79
2481636,498_1,1.0833,75.45,3851.07,989.3,-53.84,33.97,103.94,-67.01,-88.59,78.74,0.62,34.37,55.93,-234.14,-1684.23,577.68,33.06,-11.13,70.9,23.66,-99.18,65.81,281.67,44.28,-49.04,504.12,3.11,-2.24,183.88,-76.19,73.75,262.23,72.83,-31.24,-19.85,-51.58,81.15,12.73,-64.57,-10.51
2481637,498_1,1.0861,44.37,3893.66,995.96,-60.95,48.61,87.92,-72.92,-76.92,68.53,-15.5,39.3,21.04,268.36,-1790.24,590.71,35.36,-20.16,71.12,20.04,-188.16,127.43,272.06,43.66,-30.09,509.03,3.66,-12.35,189.38,-76.99,58.85,199.34,114.89,-39.39,-18.15,-53.1,80.81,15.76,-57.58,-6.55
2481638,498_1,1.0889,22.35,3647.4,929.04,-70.13,60.34,67.09,-80.38,-62.75,55.99,-29.22,41.56,-14.04,764.19,-1768.2,549.22,37.57,-26.0,68.14,16.13,-220.79,150.3,260.71,44.81,-12.0,508.85,3.74,-24.09,192.68,-80.31,44.92,134.3,138.96,-43.0,-17.93,-54.18,80.57,17.56,-51.88,-6.84
2481639,498_1,1.0917,6.77,3106.84,787.8,-80.17,67.82,43.72,-88.63,-47.2,42.09,-43.03,41.99,-56.47,1177.68,-1604.81,443.45,39.28,-27.62,62.56,11.94,-204.91,139.96,248.3,47.85,1.7,503.71,3.44,-34.36,193.58,-85.82,32.55,71.2,142.5,-41.68,-18.96,-54.73,80.64,18.06,-48.57,-11.45
2481640,498_1,1.0944,-5.06,2305.66,581.19,-90.01,70.57,20.48,-96.98,-31.6,28.09,-59.34,41.14,-109.87,1449.13,-1300.44,269.75,40.38,-24.78,55.49,8.1,-153.12,105.15,235.24,52.36,8.32,494.43,2.85,-40.37,192.14,-92.76,22.34,14.33,126.9,-35.84,-20.98,-54.85,80.98,17.47,-48.43,-19.44
2481641,498_1,1.0972,-15.35,1312.48,326.76,-98.8,69.05,0.1,-104.94,-17.45,15.34,-79.61,39.07,-173.57,1540.39,-874.79,34.57,40.99,-18.01,48.38,5.59,-79.4,55.55,221.79,57.4,6.87,482.45,2.04,-40.53,188.72,-100.07,14.56,-32.19,96.36,-26.57,-23.84,-54.91,81.39,16.05,-51.84,-29.06
2481642,498_1,1.1,-25.37,219.13,47.78,-105.85,64.49,-15.13,-112.26,-6.05,5.08,-103.73,35.44,-242.87,1438.34,-367.58,-243.61,41.26,-8.57,42.67,5.56,3.49,-0.05,208.25,61.81,-1.74,469.62,1.08,-34.83,183.89,-106.69,9.05,-64.88,56.67,-15.29,-27.5,-55.4,81.57,13.87,-58.69,-38.16
2481643,498_1,1.1028,-35.25,-874.74,-230.52,-110.71,58.57,-23.94,-118.94,1.7,-1.84,-129.88,29.7,-310.12,1156.46,166.75,-535.61,41.27,1.82,39.48,9.09,85.37,-54.69,195.16,64.61,-15.0,457.94,0.03,-24.6,178.2,-111.79,5.19,-81.37,13.88,-3.49,-31.99,-56.84,81.24,10.8,-68.34,-44.84
2481644,498_1,1.1056,-43.93,-1876.67,-484.63,-113.27,52.93,-26.43,-125.1,5.59,-5.21,-154.78,21.36,-366.33,733.79,668.73,-806.58,41.01,11.32,39.15,17.11,159.05,-103.48,183.24,65.45,-29.59,449.29,-1.08,-11.96,172.07,-114.99,2.14,-80.85,-26.65,7.51,-37.27,-59.57,80.29,6.68,-79.56,-47.94
2481645,498_1,1.1083,-49.34,-2713.11,-695.74,-113.85,48.75,-24.09,-130.9,6.07,-5.45,-174.41,10.23,-403.04,229.52,1084.89,-1023.08,40.43,18.33,41.13,30.21,219.91,-143.41,173.36,64.94,-42.27,445.03,-2.25,1.03,165.67,-116.42,-0.9,-64.45,-60.79,16.67,-43.11,-63.58,78.8,1.43,-90.7,-47.44
2481646,498_1,1.1111,-48.81,-3336.09,-851.39,-113.17,46.4,-19.36,-136.46,4.12,-3.47,-184.88,-3.45,-414.17,-287.14,1377.01,-1160.19,39.48,21.82,44.03,48.42,265.05,-172.68,166.29,64.58,-50.65,445.8,-3.55,12.94,159.01,-116.7,-4.41,-35.38,-85.81,23.32,-49.06,-68.49,77.02,-4.71,-99.92,-44.49
2481647,498_1,1.1139,-39.58,-3724.31,-945.95,-112.18,45.41,-14.89,-141.74,0.92,-0.37,-183.18,-19.07,-397.44,-750.55,1527.31,-1206.3,38.14,21.53,45.97,71.04,292.35,-190.17,162.55,66.42,-53.58,451.34,-5.09,23.19,152.1,-116.72,-8.56,1.41,-100.22,27.07,-54.45,-73.66,75.32,-11.26,-105.63,-41.07
2481648,498_1,1.1167,-19.4,-3879.62,-979.94,-111.83,44.67,-12.81,-146.51,-2.49,2.88,-167.77,-35.72,-354.98,-1111.79,1538.85,-1164.36,36.47,17.99,45.11,96.58,300.01,-194.96,162.2,72.42,-51.25,460.56,-7.05,31.93,145.03,-117.39,-13.19,39.78,-103.44,27.77,-58.6,-78.36,74.08,-17.52,-106.88,-39.45
2481649,498_1,1.1194,12.98,-3820.88,-958.83,-112.86,42.88,-14.16,-150.4,-5.44,5.72,-138.81,-52.38,-293.09,-1347.4,1431.72,-1049.67,34.61,12.36,40.17,122.93,286.55,-186.4,164.76,83.77,-45.01,471.78,-9.6,39.74,138.14,-119.33,-18.04,73.32,-95.56,25.43,-60.9,-81.99,73.58,-22.69,-103.65,-41.54
2481650,498_1,1.1222,57.53,-3577.41,-891.54,-115.55,39.05,-18.66,-153.05,-7.78,8.07,-98.04,-67.95,-220.91,-1460.95,1236.85,-885.23,32.71,6.07,30.86,147.63,251.67,-164.53,169.31,100.44,-36.99,483.11,-12.83,47.25,132.05,-122.78,-22.79,96.24,-77.29,20.21,-60.91,-84.29,73.98,-26.05,-96.83,-48.27
2481651,498_1,1.125,112.81,-3183.28,-789.12,-119.63,32.88,-24.81,-154.3,-9.85,10.38,-48.54,-81.34,-148.43,-1477.53,989.52,-696.38,30.84,0.46,18.07,168.35,197.31,-130.72,174.72,120.9,-29.63,492.86,-16.72,54.8,127.61,-127.49,-27.23,104.29,-50.09,12.51,-58.4,-85.32,75.2,-27.06,-88.06,-59.24
2481652,498_1,1.1278,176.08,-2673.05,-663.53,-124.2,25.02,-30.31,-154.3,-12.34,13.42,5.68,-91.49,-84.12,-1433.47,724.13,-506.2,28.87,-3.58,3.76,183.33,128.59,-88.19,180.05,142.42,-25.13,499.93,-21.09,62.37,125.8,-132.89,-31.26,95.48,-16.43,3.01,-53.34,-85.46,76.93,-25.55,-79.27,-72.67
2481653,498_1,1.1306,243.56,-2078.95,-526.43,-127.83,16.89,-32.72,-153.5,-15.99,18.0,60.03,-97.52,-32.94,-1365.03,470.77,-332.55,26.38,-5.8,-9.42,191.73,53.73,-41.96,184.83,161.5,-24.96,504.02,-25.58,69.47,127.53,-138.33,-34.92,70.53,20.24,-7.32,-45.89,-85.2,78.6,-21.85,-72.28,-85.64
2481654,498_1,1.1333,310.83,-1429.75,-388.19,-128.74,10.37,-30.2,-152.5,-21.3,24.63,109.76,-98.84,4.67,-1299.08,253.46,-186.73,22.71,-6.53,-18.7,193.8,-17.07,1.87,189.2,174.71,-29.53,505.59,-29.67,75.29,133.3,-143.27,-38.41,32.76,55.86,-17.3,-36.47,-84.99,79.49,-16.82,-68.4,-94.7
2481655,498_1,1.1361,373.41,-752.22,-257.31,-125.25,7.2,-22.12,-151.81,-28.24,33.22,150.38,-95.29,32.5,-1248.04,88.99,-73.69,17.15,-6.45,-21.82,190.88,-73.83,37.4,193.73,179.37,-38.06,505.67,-32.69,78.74,142.95,-147.51,-42.09,-12.39,86.52,-25.82,-25.83,-85.08,78.82,-11.75,-68.24,-96.73
2481656,498_1,1.1389,427.34,-74.92,-140.36,-116.32,8.54,-9.25,-151.63,-36.15,42.93,178.06,-87.18,57.0,-1209.72,-13.89,6.8,9.33,-6.27,-17.55,185.12,-109.16,60.32,199.01,174.19,-48.77,505.43,-33.89,78.7,155.49,-151.15,-46.47,-58.27,109.59,-32.08,-15.04,-85.49,75.97,-8.02,-71.72,-89.71
2481657,498_1,1.1417,469.73,567.62,-42.31,-102.02,14.59,6.42,-151.75,-43.81,52.28,190.2,-75.27,84.94,-1171.33,-55.28,58.51,-0.48,-6.38,-5.97,179.05,-120.27,68.98,205.07,159.54,-59.3,505.88,-32.54,74.13,169.19,-154.62,-52.08,-98.14,124.52,-35.89,-5.36,-85.99,70.7,-6.62,-78.17,-73.35
2481658,498_1,1.1444,499.2,1133.17,33.41,-83.74,24.56,22.3,-151.63,-49.73,59.45,185.84,-60.58,121.1,-1116.08,-44.43,86.94,-11.13,-6.71,11.61,175.07,-109.7,64.75,211.09,137.33,-67.35,507.56,-28.02,64.31,181.82,-158.45,-59.32,-126.27,133.12,-37.75,1.98,-86.19,63.25,-7.73,-86.61,-49.21
2481659,498_1,1.1472,516.11,1575.61,85.09,-63.96,36.94,35.97,-150.54,-52.49,62.73,166.04,-44.3,166.65,-1029.8,1.32,97.79,-20.75,-6.69,33.03,175.0,-84.65,51.54,215.49,110.55,-71.28,510.52,-19.99,49.03,191.16,-163.16,-68.33,-138.77,138.98,-38.67,6.08,-85.67,54.4,-10.57,-95.99,-20.38
2481660,498_1,1.15,522.49,1854.22,113.33,-45.59,49.92,45.9,-147.8,-51.18,61.0,133.94,-27.69,218.83,-905.63,59.61,95.96,-27.27,-5.51,55.85,179.72,-54.99,34.71,216.37,82.6,-70.52,514.42,-8.57,28.78,195.45,-169.01,-78.86,-134.02,146.12,-39.79,6.6,-84.15,45.31,-13.55,-105.48,9.29
2481661,498_1,1.1528,521.76,1945.24,121.43,-31.17,61.75,51.91,-143.03,-45.64,54.11,94.42,-12.01,271.84,-745.57,107.82,85.15,-29.09,-2.35,77.82,189.06,-30.73,19.66,212.32,56.63,-65.8,518.77,5.62,4.8,193.76,-175.97,-90.29,-112.7,157.5,-42.01,3.85,-81.53,37.27,-14.94,-114.59,36.01
2481662,498_1,1.1556,518.07,1850.49,115.1,-22.08,71.05,55.23,-136.28,-36.7,43.09,53.35,1.44,318.55,-559.08,128.18,68.12,-25.77,3.32,97.28,201.9,-19.58,10.56,203.1,35.12,-59.0,523.14,21.35,-20.85,186.1,-183.61,-101.78,-77.56,173.85,-45.62,-1.31,-78.03,31.42,-13.62,-123.29,56.89
2481663,498_1,1.1583,515.49,1598.22,101.52,-18.12,76.88,58.2,-128.14,-26.08,30.14,16.58,11.47,352.51,-359.64,111.39,47.1,-18.46,11.63,113.21,216.51,-25.21,9.47,190.09,19.65,-52.8,527.22,36.9,-45.56,173.31,-191.23,-112.5,-32.99,193.31,-50.21,-7.82,-74.07,28.54,-9.76,-131.9,70.26
2481664,498_1,1.1611,517.1,1235.6,87.95,-17.57,78.64,63.63,-119.63,-16.15,18.31,-11.27,17.12,369.56,-160.86,57.53,24.28,-9.84,22.22,125.14,230.93,-46.64,16.17,176.15,10.96,-50.01,530.91,50.25,-66.46,156.67,-197.96,-121.86,15.55,212.04,-54.82,-14.66,-70.22,28.9,-5.13,-140.89,75.81
2481665,498_1,1.1639,524.45,816.28,80.53,-17.69,76.08,73.97,-112.01,-9.42,10.86,-27.68,17.85,368.68,26.77,-25.49,1.91,-3.52,34.32,132.97,243.41,-78.83,28.42,165.07,9.09,-52.89,534.2,59.45,-80.98,137.63,-202.99,-129.67,62.23,225.56,-58.3,-21.15,-66.99,32.25,-2.73,-150.61,74.33
2481666,498_1,1.1667,537.41,388.55,83.43,-15.55,69.27,90.5,-106.54,-7.97,10.45,-32.63,13.75,351.86,197.52,-125.05,-17.82,-3.09,46.86,136.81,252.77,-114.11,42.78,160.58,13.54,-62.41,537.21,63.13,-87.43,117.46,-205.74,-136.18,101.67,230.29,-59.7,-26.93,-64.71,37.97,-5.86,-161.01,67.34
2481667,498_1,1.1694,554.53,-11.64,98.34,-8.91,58.8,112.66,-104.15,-12.82,18.42,-28.42,5.56,323.27,350.28,-227.07,-33.01,-11.05,58.59,136.86,258.69,-144.27,55.62,165.38,23.26,-77.78,540.12,60.89,-85.44,97.13,-205.91,-141.88,129.79,224.72,-58.59,-31.9,-63.46,45.19,-16.98,-171.52,56.67
2481668,498_1,1.1722,573.68,-361.48,124.31,3.11,45.93,137.89,-105.32,-23.56,34.19,-18.78,-5.35,287.99,486.96,-318.71,-42.37,-28.03,68.09,133.46,261.73,-162.63,64.04,180.39,36.7,-96.38,543.23,53.49,-76.18,77.34,-203.56,-147.25,144.37,209.74,-55.14,-35.95,-63.07,53.06,-36.74,-180.93,44.18
2481669,498_1,1.175,592.75,-647.64,157.72,19.78,32.75,161.88,-109.93,-38.35,55.25,-7.87,-17.22,250.73,610.06,-390.19,-45.42,-52.61,73.88,127.07,263.25,-165.41,66.46,204.54,51.75,-114.2,547.01,42.75,-62.04,58.58,-199.0,-152.57,145.12,188.07,-49.97,-38.88,-63.18,60.82,-63.59,-187.53,31.55
2481670,498_1,1.1778,610.14,-861.3,192.38,38.94,21.95,179.53,-117.27,-54.27,77.61,0.86,-28.16,214.8,720.07,-435.8,-42.5,-81.6,74.49,118.28,264.98,-152.29,62.8,235.06,65.98,-126.59,552.07,31.18,-46.07,41.21,-192.7,-157.82,133.28,163.02,-43.86,-40.27,-63.42,67.93,-94.07,-189.42,20.17
2481671,498_1,1.1806,624.91,-994.58,220.18,57.62,16.46,186.12,-126.1,-68.0,96.73,5.34,-36.5,181.78,813.84,-454.04,-34.7,-110.9,68.7,107.73,268.64,-125.88,54.16,268.17,76.91,-129.26,559.02,21.36,-31.28,25.56,-185.13,-162.79,110.77,137.33,-37.45,-39.7,-63.48,74.0,-123.7,-184.82,11.1
2481672,498_1,1.1833,636.61,-1039.95,232.19,72.74,18.8,178.65,-134.77,-76.66,108.64,5.12,-41.09,151.6,884.45,-447.14,-23.62,-136.33,55.77,96.1,275.57,-90.86,42.37,299.86,82.51,-119.06,568.32,15.45,-20.02,11.94,-176.71,-167.26,79.49,112.61,-31.07,-36.89,-63.18,78.74,-148.1,-172.54,5.08
