jointmoment_id,session_trial,time,elbow_moment_x,elbow_moment_y,elbow_moment_z,shoulder_thorax_moment_x,shoulder_thorax_moment_y,shoulder_thorax_moment_z,shoulder_upper_arm_moment_x,shoulder_upper_arm_moment_y,shoulder_upper_arm_moment_z,wrist_moment_x,wrist_moment_y,wrist_moment_z,glove_elbow_moment_x,glove_elbow_moment_y,glove_elbow_moment_z,glove_shoulder_glove_upper_arm_moment_x,glove_shoulder_glove_upper_arm_moment_y,glove_shoulder_glove_upper_arm_moment_z,glove_shoulder_thorax_moment_x,glove_shoulder_thorax_moment_y,glove_shoulder_thorax_moment_z,glove_wrist_moment_x,glove_wrist_moment_y,glove_wrist_moment_z
2481246,498_1,0.0,-37.01,17.97,2.13,-69.08,-21.62,-8.16,-61.09,35.69,17.96,3.84,-6.75,0.34,-38.69,86.6,-5.2,-119.15,36.76,26.34,-66.9,-65.63,-86.07,19.91,-4.3,-1.63
2481247,498_1,0.0028,-20.41,4.6,1.51,-33.14,-14.7,-2.29,-31.76,17.42,4.57,0.81,-4.12,0.18,-21.63,50.75,-3.92,-63.72,22.7,17.8,-35.2,-33.12,-50.34,12.17,-2.36,-1.13
2481248,498_1,0.0055,-7.9,-4.87,0.92,-6.63,-9.18,1.91,-9.86,3.94,-4.91,-1.36,-2.09,0.07,-8.66,22.72,-2.84,-21.18,11.46,10.88,-11.02,-8.32,-22.41,6.11,-0.9,-0.73
2481249,498_1,0.0083,0.57,-10.56,0.39,10.75,-5.09,4.38,4.74,-5.02,-10.61,-2.7,-0.67,0.01,0.18,2.51,-1.96,8.47,3.08,5.59,5.66,8.76,-2.28,1.74,0.08,-0.42
2481250,498_1,0.0111,5.43,-12.98,-0.06,20.21,-2.36,5.25,12.87,-10.14,-13.04,-3.29,0.2,-0.01,5.25,-10.57,-1.26,26.43,-2.66,1.8,15.54,18.85,10.72,-1.11,0.6,-0.19
2481251,498_1,0.0139,7.35,-12.87,-0.41,23.47,-0.82,4.74,15.82,-12.38,-12.93,-3.3,0.63,0.0,7.16,-17.7,-0.7,34.71,-6.17,-0.73,19.83,23.15,17.79,-2.68,0.73,-0.04
2481252,498_1,0.0167,7.13,-11.07,-0.64,22.44,-0.22,3.2,15.08,-12.7,-11.12,-2.9,0.71,0.03,6.71,-20.28,-0.24,35.73,-7.89,-2.28,19.98,23.11,20.31,-3.29,0.56,0.07
2481253,498_1,0.0194,5.54,-8.36,-0.74,18.94,-0.28,1.04,12.09,-11.96,-8.39,-2.25,0.56,0.06,4.76,-19.74,0.13,31.94,-8.29,-3.16,17.46,20.18,19.72,-3.25,0.2,0.14
2481254,498_1,0.0222,3.27,-5.38,-0.73,14.44,-0.68,-1.33,8.17,-10.76,-5.4,-1.5,0.27,0.08,2.15,-17.39,0.47,25.62,-7.82,-3.59,13.6,15.74,17.3,-2.85,-0.25,0.2
2481255,498_1,0.025,0.87,-2.61,-0.63,10.03,-1.12,-3.51,4.33,-9.49,-2.6,-0.76,-0.06,0.09,-0.45,-14.26,0.77,18.58,-6.87,-3.76,9.47,10.92,14.12,-2.32,-0.7,0.24
2481256,498_1,0.0278,-1.24,-0.35,-0.45,6.42,-1.34,-5.18,1.32,-8.32,-0.31,-0.1,-0.37,0.09,-2.49,-11.16,1.05,12.17,-5.77,-3.77,5.8,6.6,10.96,-1.83,-1.09,0.28
2481257,498_1,0.0306,-2.79,1.24,-0.25,3.96,-1.14,-6.1,-0.44,-7.27,1.31,0.41,-0.59,0.07,-3.67,-8.58,1.3,7.2,-4.8,-3.62,2.95,3.33,8.34,-1.48,-1.38,0.33
2481258,498_1,0.0333,-3.61,2.11,-0.04,2.73,-0.48,-6.15,-0.8,-6.31,2.19,0.73,-0.69,0.04,-3.87,-6.78,1.54,4.0,-4.19,-3.31,1.03,1.41,6.49,-1.32,-1.53,0.37
2481259,498_1,0.0361,-3.69,2.26,0.12,2.62,0.6,-5.32,0.14,-5.37,2.36,0.85,-0.65,0.01,-3.19,-5.8,1.75,2.54,-4.03,-2.8,-0.09,0.87,5.47,-1.32,-1.56,0.42
2481260,498_1,0.0389,-3.1,1.81,0.24,3.42,1.98,-3.75,2.1,-4.44,1.9,0.78,-0.45,-0.03,-1.8,-5.54,1.92,2.53,-4.37,-2.06,-0.61,1.55,5.18,-1.46,-1.49,0.46
2481261,498_1,0.0417,-1.98,0.92,0.28,4.79,3.46,-1.72,4.67,-3.53,1.0,0.55,-0.14,-0.06,-0.01,-5.82,2.04,3.57,-5.13,-1.12,-0.76,3.16,5.43,-1.66,-1.34,0.49
2481262,498_1,0.0444,-0.59,-0.17,0.24,6.39,4.87,0.45,7.39,-2.7,-0.11,0.22,0.23,-0.08,1.92,-6.41,2.09,5.24,-6.17,-0.02,-0.71,5.36,6.02,-1.85,-1.14,0.51
2481263,498_1,0.0472,0.82,-1.19,0.14,7.88,6.06,2.38,9.83,-2.02,-1.16,-0.11,0.59,-0.09,3.71,-7.1,2.05,7.17,-7.31,1.14,-0.56,7.78,6.72,-1.99,-0.93,0.5
2481264,498_1,0.05,1.99,-1.88,-0.01,8.98,6.95,3.76,11.64,-1.54,-1.88,-0.37,0.87,-0.08,5.16,-7.72,1.91,9.05,-8.35,2.26,-0.35,10.11,7.38,-2.04,-0.73,0.47
2481265,498_1,0.0528,2.73,-2.04,-0.19,9.5,7.53,4.36,12.64,-1.3,-2.08,-0.49,1.0,-0.06,6.13,-8.13,1.64,10.66,-9.1,3.24,-0.07,12.07,7.83,-1.98,-0.55,0.41
2481266,498_1,0.0556,2.94,-1.58,-0.37,9.39,7.84,4.14,12.8,-1.29,-1.66,-0.43,0.95,-0.03,6.57,-8.18,1.25,11.84,-9.39,4.02,0.3,13.45,7.97,-1.8,-0.42,0.33
2481267,498_1,0.0583,2.63,-0.58,-0.53,8.72,7.95,3.2,12.22,-1.47,-0.69,-0.2,0.74,0.02,6.45,-7.79,0.76,12.45,-9.12,4.53,0.76,14.11,7.68,-1.53,-0.33,0.21
2481268,498_1,0.0611,1.93,0.76,-0.67,7.67,7.91,1.79,11.15,-1.78,0.61,0.15,0.42,0.06,5.79,-6.87,0.19,12.39,-8.18,4.8,1.31,13.93,6.88,-1.15,-0.29,0.08
2481269,498_1,0.0639,1.03,2.14,-0.77,6.49,7.74,0.25,9.83,-2.13,1.96,0.52,0.04,0.1,4.67,-5.38,-0.4,11.62,-6.55,4.82,1.93,12.9,5.52,-0.68,-0.3,-0.06
2481270,498_1,0.0667,0.13,3.23,-0.83,5.43,7.44,-1.09,8.54,-2.43,3.04,0.83,-0.3,0.13,3.16,-3.33,-0.97,10.15,-4.25,4.65,2.61,11.06,3.6,-0.13,-0.36,-0.2
2481271,498_1,0.0694,-0.6,3.78,-0.84,4.66,7.02,-1.96,7.46,-2.64,3.59,0.99,-0.56,0.15,1.41,-0.84,-1.44,8.13,-1.37,4.29,3.35,8.53,1.23,0.46,-0.45,-0.32
2481272,498_1,0.0722,-1.07,3.67,-0.8,4.3,6.49,-2.22,6.71,-2.71,3.49,0.98,-0.68,0.15,-0.46,1.87,-1.77,5.78,1.89,3.76,4.17,5.55,-1.39,1.03,-0.57,-0.4
2481273,498_1,0.075,-1.26,2.94,-0.7,4.35,5.91,-1.89,6.36,-2.64,2.8,0.79,-0.68,0.14,-2.27,4.46,-1.9,3.42,5.24,3.06,5.1,2.4,-3.93,1.54,-0.72,-0.45
2481274,498_1,0.0778,-1.23,1.8,-0.55,4.71,5.38,-1.11,6.37,-2.44,1.71,0.5,-0.56,0.11,-3.88,6.57,-1.84,1.41,8.34,2.16,6.12,-0.57,-6.04,1.9,-0.87,-0.46
2481275,498_1,0.0806,-1.07,0.51,-0.35,5.26,5.01,-0.09,6.71,-2.15,0.47,0.16,-0.39,0.07,-5.15,7.86,-1.59,0.06,10.84,1.07,7.2,-3.06,-7.39,2.04,-1.01,-0.41
2481276,498_1,0.0833,-0.89,-0.66,-0.12,5.88,4.87,0.92,7.29,-1.85,-0.63,-0.13,-0.21,0.02,-5.99,8.13,-1.2,-0.47,12.48,-0.16,8.27,-4.82,-7.77,1.94,-1.12,-0.33
2481277,498_1,0.0861,-0.76,-1.52,0.13,6.46,4.98,1.73,8.0,-1.6,-1.43,-0.32,-0.05,-0.03,-6.4,7.35,-0.74,-0.15,13.1,-1.47,9.22,-5.75,-7.12,1.6,-1.2,-0.22
2481278,498_1,0.0889,-0.71,-2.01,0.36,6.95,5.26,2.23,8.7,-1.47,-1.87,-0.42,0.08,-0.07,-6.43,5.72,-0.27,0.82,12.74,-2.74,9.92,-5.89,-5.64,1.1,-1.24,-0.11
2481279,498_1,0.0917,-0.72,-2.2,0.57,7.34,5.58,2.38,9.27,-1.52,-2.0,-0.43,0.16,-0.11,-6.18,3.59,0.14,2.13,11.58,-3.84,10.26,-5.41,-3.64,0.51,-1.24,0.0
2481280,498_1,0.0944,-0.76,-2.21,0.71,7.62,5.73,2.24,9.56,-1.76,-1.97,-0.41,0.21,-0.13,-5.79,1.37,0.45,3.42,9.91,-4.65,10.18,-4.58,-1.52,-0.06,-1.21,0.09
2481281,498_1,0.0972,-0.76,-2.21,0.79,7.77,5.56,1.92,9.45,-2.13,-1.94,-0.41,0.25,-0.14,-5.36,-0.55,0.64,4.39,8.08,-5.12,9.68,-3.66,0.33,-0.51,-1.16,0.14
2481282,498_1,0.1,-0.68,-2.3,0.8,7.72,4.96,1.55,8.86,-2.54,-2.0,-0.45,0.29,-0.15,-4.96,-1.91,0.71,4.84,6.39,-5.25,8.87,-2.89,1.67,-0.8,-1.1,0.17
2481283,498_1,0.1028,-0.5,-2.5,0.73,7.4,3.94,1.22,7.79,-2.86,-2.19,-0.55,0.34,-0.14,-4.57,-2.64,0.69,4.77,5.03,-5.11,7.88,-2.37,2.42,-0.93,-1.03,0.17
2481284,498_1,0.1056,-0.22,-2.72,0.59,6.7,2.62,1.0,6.26,-2.95,-2.44,-0.68,0.4,-0.12,-4.16,-2.85,0.61,4.32,4.08,-4.8,6.87,-2.12,2.66,-0.94,-0.94,0.15
2481285,498_1,0.1083,0.13,-2.83,0.39,5.56,1.19,0.88,4.42,-2.72,-2.6,-0.79,0.47,-0.09,-3.66,-2.76,0.5,3.73,3.43,-4.43,5.96,-2.01,2.6,-0.9,-0.84,0.13
2481286,498_1,0.1111,0.52,-2.61,0.13,3.96,-0.12,0.79,2.4,-2.14,-2.49,-0.8,0.55,-0.06,-3.02,-2.63,0.39,3.22,2.92,-4.04,5.18,-1.88,2.48,-0.88,-0.73,0.11
2481287,498_1,0.1139,0.92,-1.89,-0.18,1.95,-1.07,0.62,0.41,-1.25,-1.93,-0.66,0.63,-0.02,-2.25,-2.65,0.29,2.98,2.32,-3.64,4.5,-1.52,2.49,-0.9,-0.61,0.09
2481288,498_1,0.1167,1.26,-0.54,-0.51,-0.37,-1.49,0.27,-1.39,-0.13,-0.8,-0.31,0.69,0.02,-1.38,-2.91,0.22,3.07,1.48,-3.18,3.84,-0.82,2.72,-0.99,-0.48,0.08
2481289,498_1,0.1194,1.47,1.43,-0.85,-2.85,-1.31,-0.35,-2.87,1.06,0.93,0.24,0.72,0.06,-0.5,-3.38,0.15,3.46,0.32,-2.59,3.12,0.27,3.14,-1.11,-0.36,0.08
2481290,498_1,0.1222,1.46,3.9,-1.16,-5.27,-0.57,-1.26,-3.95,2.17,3.14,0.97,0.69,0.1,0.31,-3.91,0.08,4.03,-1.08,-1.82,2.32,1.71,3.65,-1.22,-0.24,0.08
2481291,498_1,0.125,1.13,6.57,-1.39,-7.39,0.56,-2.4,-4.58,3.06,5.56,1.78,0.56,0.13,1.0,-4.34,-0.01,4.66,-2.55,-0.85,1.47,3.33,4.07,-1.25,-0.12,0.06
2481292,498_1,0.1278,0.4,8.99,-1.5,-8.93,1.84,-3.58,-4.77,3.59,7.82,2.55,0.31,0.15,1.54,-4.52,-0.14,5.27,-3.88,0.27,0.68,4.99,4.27,-1.18,0.01,0.04
2481293,498_1,0.1306,-0.77,10.68,-1.46,-9.63,2.98,-4.6,-4.53,3.66,9.46,3.11,-0.07,0.15,1.93,-4.37,-0.29,5.81,-4.85,1.46,0.09,6.51,4.18,-1.01,0.16,0.01
2481294,498_1,0.1333,-2.34,11.15,-1.22,-9.22,3.69,-5.19,-3.87,3.22,10.04,3.33,-0.58,0.14,2.2,-3.88,-0.47,6.28,-5.33,2.62,-0.18,7.76,3.8,-0.74,0.32,-0.03
2481295,498_1,0.1361,-4.16,10.05,-0.8,-7.56,3.82,-5.15,-2.78,2.27,9.25,3.09,-1.19,0.11,2.36,-3.13,-0.65,6.69,-5.28,3.65,-0.07,8.68,3.16,-0.41,0.48,-0.07
2481296,498_1,0.1389,-6.03,7.3,-0.22,-4.62,3.31,-4.36,-1.26,0.86,6.96,2.36,-1.82,0.07,2.37,-2.19,-0.82,7.03,-4.75,4.49,0.39,9.24,2.35,-0.07,0.62,-0.12
2481297,498_1,0.1417,-7.65,3.06,0.45,-0.55,2.28,-2.83,0.69,-0.88,3.33,1.19,-2.39,0.02,2.18,-1.15,-0.94,7.24,-3.86,5.13,1.06,9.44,1.43,0.26,0.71,-0.15
2481298,498_1,0.1444,-8.77,-2.16,1.12,4.27,0.95,-0.72,2.98,-2.76,-1.22,-0.3,-2.83,-0.04,1.72,-0.05,-0.98,7.23,-2.75,5.59,1.77,9.29,0.42,0.57,0.7,-0.18
2481299,498_1,0.1472,-9.17,-7.67,1.72,9.33,-0.39,1.68,5.47,-4.59,-6.09,-1.88,-3.07,-0.09,0.94,1.09,-0.93,6.89,-1.54,5.9,2.36,8.8,-0.66,0.85,0.56,-0.19
2481300,498_1,0.15,-8.76,-12.66,2.14,14.02,-1.45,4.01,7.95,-6.16,-10.56,-3.34,-3.05,-0.14,-0.18,2.27,-0.77,6.14,-0.32,6.09,2.71,7.98,-1.82,1.1,0.3,-0.18
2481301,498_1,0.1528,-7.56,-16.39,2.33,17.74,-2.04,5.87,10.11,-7.32,-13.98,-4.45,-2.77,-0.16,-1.54,3.45,-0.52,5.02,0.89,6.16,2.81,6.85,-3.01,1.35,-0.08,-0.16
2481302,498_1,0.1556,-5.73,-18.3,2.26,20.02,-2.06,6.94,11.71,-7.99,-15.83,-5.03,-2.28,-0.18,-2.99,4.57,-0.18,3.63,2.11,6.07,2.76,5.45,-4.16,1.58,-0.52,-0.13
2481303,498_1,0.1583,-3.51,-18.09,1.93,20.61,-1.5,7.02,12.53,-8.14,-15.85,-5.01,-1.62,-0.17,-4.33,5.52,0.19,2.21,3.38,5.73,2.77,3.86,-5.17,1.78,-0.95,-0.09
2481304,498_1,0.1611,-1.18,-15.8,1.38,19.46,-0.45,6.07,12.5,-7.79,-14.05,-4.39,-0.89,-0.14,-5.34,6.15,0.55,1.03,4.76,5.06,3.07,2.15,-5.87,1.93,-1.3,-0.04
2481305,498_1,0.1639,0.95,-11.74,0.69,16.8,0.98,4.22,11.67,-7.03,-10.69,-3.25,-0.2,-0.1,-5.85,6.37,0.85,0.34,6.29,4.0,3.88,0.44,-6.17,2.0,-1.51,0.0
2481306,498_1,0.1667,2.58,-6.44,-0.05,12.99,2.64,1.75,10.2,-5.92,-6.21,-1.75,0.37,-0.05,-5.76,6.12,1.05,0.28,7.94,2.55,5.27,-1.18,-5.99,1.96,-1.55,0.04
2481307,498_1,0.1694,3.44,-0.53,-0.74,8.46,4.4,-0.96,8.34,-4.5,-1.16,-0.08,0.71,0.0,-5.14,5.46,1.13,0.83,9.64,0.78,7.17,-2.65,-5.37,1.83,-1.4,0.07
2481308,498_1,0.1722,3.33,5.34,-1.29,3.67,6.14,-3.55,6.32,-2.83,3.91,1.58,0.77,0.04,-4.15,4.51,1.09,1.83,11.27,-1.12,9.35,-3.9,-4.44,1.6,-1.12,0.09
2481309,498_1,0.175,2.13,10.62,-1.61,-1.04,7.75,-5.66,4.35,-0.91,8.55,3.05,0.51,0.07,-3.03,3.47,0.96,2.99,12.64,-2.92,11.46,-4.89,-3.39,1.32,-0.78,0.1
2481310,498_1,0.1778,-0.12,14.94,-1.66,-5.39,9.16,-7.08,2.56,1.24,12.42,4.26,-0.08,0.08,-2.08,2.56,0.78,4.02,13.57,-4.35,13.11,-5.55,-2.43,1.02,-0.44,0.09
2481311,498_1,0.1806,-2.7,-2.29,0.22,7.59,4.76,1.92,8.59,-2.26,-2.23,-0.22,0.46,-0.04,-0.57,-1.77,0.53,7.5,5.9,1.45,9.56,1.14,-1.2,-0.4,-0.17,0.11
2481312,498_1,0.1833,-6.81,20.18,-0.91,-12.53,11.18,-7.63,-0.22,5.96,17.42,5.72,-1.88,0.05,-1.41,1.62,0.38,4.93,13.43,-5.25,13.89,-5.51,-1.36,0.49,-0.05,0.07
2481313,498_1,0.1861,-10.33,21.26,-0.2,-15.21,11.78,-7.01,-1.21,8.29,18.64,6.07,-2.83,0.01,-1.76,1.53,0.23,4.86,12.17,-4.53,12.87,-4.58,-1.24,0.29,-0.03,0.05
2481314,498_1,0.1889,-13.17,21.61,0.59,-17.25,12.14,-6.11,-1.95,10.34,19.23,6.26,-3.57,-0.04,-2.36,1.45,0.1,4.75,10.1,-3.12,11.13,-2.91,-1.18,0.09,-0.09,0.03
2481315,498_1,0.1917,-14.76,21.47,1.37,-18.6,12.29,-5.21,-2.43,11.89,19.36,6.37,-3.93,-0.09,-2.9,1.04,-0.03,4.94,7.28,-1.29,8.96,-0.48,-0.9,-0.14,-0.15,0.02
2481316,498_1,0.1944,-14.67,21.01,2.01,-19.18,12.25,-4.51,-2.63,12.75,19.14,6.44,-3.78,-0.13,-3.04,-0.01,-0.21,5.73,3.85,0.63,6.72,2.62,-0.07,-0.47,-0.11,0.0
2481317,498_1,0.1972,-12.75,20.27,2.44,-18.89,11.99,-4.13,-2.54,12.77,18.58,6.47,-3.07,-0.17,-2.5,-1.93,-0.47,7.26,0.0,2.25,4.69,6.14,1.52,-0.94,0.12,-0.03
2481318,498_1,0.2,-9.21,19.14,2.6,-17.61,11.47,-4.04,-2.13,11.89,17.6,6.38,-1.84,-0.18,-1.14,-4.77,-0.86,9.46,-4.01,3.23,3.08,9.7,3.96,-1.57,0.58,-0.06
2481319,498_1,0.2028,-4.57,17.41,2.51,-15.3,10.64,-4.11,-1.38,10.13,16.04,6.08,-0.25,-0.17,0.98,-8.29,-1.35,12.0,-7.84,3.35,1.94,12.82,7.06,-2.31,1.28,-0.11
2481320,498_1,0.2056,0.36,14.84,2.21,-11.94,9.44,-4.13,-0.31,7.63,13.72,5.47,1.48,-0.13,3.58,-11.99,-1.9,14.32,-11.08,2.55,1.21,14.97,10.41,-3.06,2.16,-0.16
2481321,498_1,0.2083,4.72,11.25,1.76,-7.61,7.86,-3.87,1.05,4.6,10.51,4.43,3.11,-0.08,6.17,-15.16,-2.43,15.79,-13.3,0.99,0.77,15.69,13.36,-3.66,3.1,-0.21
2481322,498_1,0.2111,7.72,6.58,1.26,-2.51,5.91,-3.16,2.65,1.27,6.42,2.93,4.39,-0.01,8.17,-16.99,-2.81,15.76,-14.12,-1.0,0.41,14.65,15.21,-3.91,3.94,-0.25
2481323,498_1,0.2139,8.9,0.96,0.81,3.12,3.7,-1.95,4.41,-2.11,1.59,1.01,5.16,0.05,8.97,-16.81,-2.91,13.78,-13.28,-3.03,-0.03,11.73,15.33,-3.65,4.51,-0.27
2481324,498_1,0.2167,8.18,-5.34,0.49,8.92,1.35,-0.29,6.21,-5.34,-3.72,-1.22,5.38,0.1,8.1,-14.28,-2.63,9.67,-10.77,-4.7,-0.72,7.08,13.35,-2.76,4.67,-0.27
2481325,498_1,0.2194,5.91,-11.88,0.34,14.55,-1.01,1.67,7.92,-8.24,-9.16,-3.56,5.1,0.14,5.31,-9.48,-1.93,3.62,-6.86,-5.71,-1.78,1.14,9.29,-1.26,4.31,-0.24
2481326,498_1,0.2222,2.78,-18.22,0.39,19.62,-3.28,3.74,9.37,-10.7,-14.32,-5.78,4.47,0.16,0.68,-3.02,-0.83,-3.83,-2.12,-5.95,-3.27,-5.46,3.63,0.7,3.42,-0.17
2481327,498_1,0.225,-0.37,-23.86,0.61,23.79,-5.39,5.67,10.36,-12.62,-18.85,-7.63,3.7,0.16,-5.38,4.09,0.56,-11.86,2.66,-5.46,-5.21,-11.93,-2.81,2.85,2.09,-0.07
2481328,498_1,0.2278,-2.76,-28.38,0.95,26.72,-7.33,7.28,10.69,-13.93,-22.43,-8.88,2.97,0.14,-12.19,10.63,2.06,-19.49,6.6,-4.46,-7.56,-17.49,-8.97,4.86,0.43,0.04
2481329,498_1,0.2306,-0.42,-9.76,-0.2,9.21,-1.05,5.48,5.68,-3.35,-8.65,-2.08,-0.87,0.04,-6.4,-0.02,0.63,-1.87,-7.73,-5.32,-7.42,5.94,0.32,0.38,1.42,0.03
2481330,498_1,0.2333,-3.56,-32.51,1.48,27.76,-10.77,8.9,8.6,-14.48,-25.81,-8.99,2.04,0.11,-24.71,17.53,4.54,-30.2,8.93,-2.11,-13.22,-23.36,-16.42,7.02,-3.02,0.29
2481331,498_1,0.2361,-2.14,-31.55,1.37,25.51,-12.34,8.73,5.93,-13.64,-25.33,-7.75,1.78,0.09,-28.87,16.53,5.09,-32.24,6.45,-1.36,-16.37,-23.1,-16.36,6.66,-4.43,0.4
2481332,498_1,0.2389,-0.3,-28.36,0.77,21.35,-13.88,7.84,2.09,-12.09,-23.37,-5.72,1.45,0.1,-30.93,12.51,4.95,-32.0,1.6,-1.18,-19.61,-20.89,-13.55,5.2,-5.44,0.48
2481333,498_1,0.2417,1.02,-22.98,-0.46,15.4,-15.47,6.25,-2.89,-9.94,-20.03,-3.05,0.79,0.11,-30.68,6.1,4.06,-29.88,-5.11,-1.67,-22.81,-17.25,-8.41,2.75,-5.95,0.53
2481334,498_1,0.2444,0.83,-15.63,-2.41,7.96,-17.22,3.98,-8.91,-7.41,-15.53,0.05,-0.42,0.14,-28.2,-1.59,2.44,-26.53,-12.79,-2.81,-25.78,-12.89,-1.74,-0.43,-5.94,0.54
2481335,498_1,0.2472,-1.67,-6.82,-5.07,-0.51,-19.28,1.1,-15.8,-4.8,-10.25,3.33,-2.35,0.18,-23.76,-9.21,0.2,-22.68,-20.31,-4.43,-28.26,-8.62,5.41,-3.96,-5.47,0.52
2481336,498_1,0.25,-6.89,2.72,-8.33,-9.33,-21.75,-2.23,-23.25,-2.47,-4.67,6.53,-5.06,0.21,-17.82,-15.34,-2.45,-19.0,-26.46,-6.26,-29.85,-5.12,11.84,-7.38,-4.63,0.47
2481337,498_1,0.2528,-14.66,12.0,-11.91,-17.73,-24.68,-5.77,-30.79,-0.78,0.63,9.36,-8.41,0.24,-10.94,-18.76,-5.18,-15.9,-30.12,-7.95,-30.13,-2.85,16.47,-10.2,-3.58,0.4
2481338,498_1,0.2556,-24.18,19.91,-15.43,-24.8,-27.95,-9.22,-37.79,-0.01,5.02,11.56,-12.09,0.24,-3.81,-18.73,-7.63,-13.5,-30.45,-9.1,-28.65,-1.93,18.49,-11.98,-2.53,0.31
2481339,498_1,0.2583,-34.05,25.38,-18.37,-29.7,-31.25,-12.19,-43.47,-0.31,7.99,12.89,-15.63,0.22,2.82,-15.12,-9.43,-11.57,-27.08,-9.38,-25.05,-2.16,17.54,-12.4,-1.73,0.21
2481340,498_1,0.2611,-42.48,27.61,-20.19,-31.77,-34.02,-14.34,-46.96,-1.62,9.24,13.15,-18.48,0.16,8.19,-8.52,-10.25,-9.65,-20.2,-8.62,-19.2,-3.03,13.77,-11.34,-1.41,0.12
2481341,498_1,0.2639,-47.58,26.29,-20.4,-30.66,-35.48,-15.41,-47.43,-3.68,8.78,12.26,-20.07,0.07,11.65,-0.12,-9.88,-7.2,-10.62,-6.81,-11.29,-3.93,7.87,-8.92,-1.75,0.03
2481342,498_1,0.2667,-47.84,21.73,-18.66,-26.5,-34.76,-15.28,-44.29,-6.0,7.04,10.28,-19.98,-0.04,12.81,8.51,-8.32,-3.81,0.43,-4.19,-1.85,-4.26,0.92,-5.47,-2.83,-0.04
2481343,498_1,0.2694,-42.47,14.89,-14.88,-19.85,-31.13,-14.05,-37.29,-8.01,4.75,7.39,-18.03,-0.15,11.65,15.84,-5.74,0.69,11.49,-1.12,8.26,-3.62,-5.91,-1.48,-4.55,-0.09
2481344,498_1,0.2722,-31.75,7.11,-9.29,-11.68,-24.14,-11.98,-26.72,-9.12,2.75,3.96,-14.32,-0.26,8.52,20.66,-2.49,6.14,21.15,1.94,18.04,-1.86,-11.52,2.5,-6.67,-0.13
2481345,498_1,0.275,-17.08,-0.24,-2.38,-3.07,-13.91,-9.35,-13.33,-8.89,1.76,0.44,-9.24,-0.36,4.11,22.42,0.95,12.1,28.35,4.6,26.53,0.86,-15.21,5.95,-8.84,-0.16
2481346,498_1,0.2778,-0.68,-6.19,5.11,4.96,-1.17,-6.41,1.67,-7.15,2.08,-2.64,-3.37,-0.43,-0.77,21.18,4.14,17.94,32.51,6.61,32.94,4.22,-16.68,8.48,-10.68,-0.18
2481347,498_1,0.2805,14.81,-10.37,12.39,11.73,12.88,-3.29,16.94,-4.02,3.53,-4.78,2.69,-0.49,-5.35,17.54,6.69,23.06,33.53,7.87,36.83,7.8,-16.08,9.91,-11.89,-0.19
2481348,498_1,0.2833,26.92,-13.01,18.71,16.92,26.75,0.01,31.15,0.13,5.5,-5.57,8.46,-0.55,-9.1,12.39,8.39,26.98,31.77,8.47,38.09,11.23,-13.85,10.24,-12.27,-0.2
2481349,498_1,0.2861,33.77,-14.74,23.46,20.57,39.0,3.57,43.22,4.78,7.24,-4.76,13.75,-0.61,-11.75,6.65,9.19,29.44,27.85,8.59,36.94,14.24,-10.61,9.64,-11.83,-0.2
2481350,498_1,0.2889,34.29,-16.18,26.29,22.89,48.49,7.36,52.41,9.39,8.06,-2.29,18.68,-0.69,-13.33,1.15,9.23,30.41,22.54,8.45,33.86,16.68,-6.98,8.4,-10.71,-0.21
2481351,498_1,0.2917,28.29,-17.62,27.03,24.06,54.55,11.23,58.29,13.47,7.68,1.67,23.65,-0.79,-14.14,-3.51,8.75,30.03,16.72,8.26,29.54,18.46,-3.57,6.87,-9.22,-0.22
2481352,498_1,0.2944,16.35,-18.82,25.71,24.14,56.94,14.78,60.66,16.68,6.23,6.74,29.19,-0.9,-14.63,-6.89,8.09,28.56,11.25,8.15,24.71,19.52,-0.9,5.41,-7.72,-0.25
2481353,498_1,0.2972,-0.26,-19.05,22.46,23.01,55.8,17.43,59.48,18.75,4.28,12.34,35.81,-1.01,-15.3,-8.72,7.55,26.27,6.95,8.21,20.14,19.79,0.63,4.32,-6.59,-0.28
2481354,498_1,0.3,-19.66,-17.26,17.56,20.41,51.54,18.49,54.8,19.57,2.65,17.8,43.76,-1.09,-16.59,-8.81,7.39,23.42,4.5,8.45,16.5,19.2,0.7,3.81,-6.15,-0.33
2481355,498_1,0.3028,-39.46,-12.5,11.36,16.1,44.69,17.37,46.8,19.07,2.17,22.4,52.96,-1.11,-18.76,-7.06,7.78,20.22,4.39,8.86,14.27,17.7,-0.88,3.97,-6.61,-0.37
2481356,498_1,0.3056,-56.88,-4.34,4.37,10.07,35.91,13.77,35.92,17.3,3.37,25.48,62.85,-1.05,-21.83,-3.5,8.74,16.84,6.78,9.43,13.7,15.3,-4.11,4.72,-8.02,-0.42
2481357,498_1,0.3083,-69.14,6.73,-2.76,2.7,25.92,7.89,22.97,14.41,6.27,26.55,72.54,-0.9,-25.52,1.7,10.15,13.4,11.46,10.12,14.7,12.13,-8.78,5.86,-10.26,-0.46
2481358,498_1,0.3111,-73.94,19.18,-9.3,-5.09,15.45,0.53,9.16,10.62,10.21,25.37,80.84,-0.66,-29.23,8.12,11.78,10.05,17.77,10.91,16.92,8.45,-14.44,7.06,-13.06,-0.48
2481359,498_1,0.3139,-70.17,30.57,-14.56,-12.01,5.18,-7.02,-4.07,6.21,13.94,22.01,86.58,-0.34,-32.13,15.07,13.26,6.95,24.71,11.71,19.71,4.64,-20.31,7.87,-16.0,-0.47
2481360,498_1,0.3167,-58.32,38.2,-18.02,-16.64,-4.41,-13.3,-15.31,1.47,15.93,16.85,88.81,0.04,-33.29,21.57,14.18,4.33,30.94,12.37,22.3,1.18,-25.43,7.86,-18.61,-0.43
2481361,498_1,0.3194,-40.53,39.93,-19.47,-17.95,-13.04,-17.04,-23.56,-3.29,14.89,10.5,87.04,0.42,-31.84,26.42,14.15,2.51,35.04,12.67,23.9,-1.42,-28.65,6.64,-20.4,-0.35
2481362,498_1,0.3222,-20.0,34.88,-19.02,-15.61,-20.62,-17.57,-28.47,-7.77,10.24,3.71,81.32,0.77,-27.24,28.36,12.88,1.83,35.73,12.34,23.85,-2.69,-28.87,3.99,-21.03,-0.23
2481363,498_1,0.325,-0.19,23.77,-17.06,-10.18,-27.06,-14.97,-30.26,-11.63,2.37,-2.75,72.27,1.05,-19.47,26.29,10.27,2.63,32.17,11.09,21.83,-2.32,-25.28,-0.11,-20.32,-0.09
2481364,498_1,0.3278,16.08,8.7,-14.12,-2.9,-32.13,-10.0,-29.57,-14.53,-7.45,-8.22,60.9,1.24,-9.2,19.68,6.45,5.04,24.17,8.72,17.86,-0.27,-17.6,-5.35,-18.33,0.06
2481365,498_1,0.3305,-11.16,-7.68,-0.01,4.28,-10.71,-1.19,-7.02,-6.98,-6.07,-1.24,2.11,-0.06,-5.85,-4.44,-0.08,1.41,0.58,4.7,1.9,-2.75,-3.64,0.05,0.73,-0.06
2481366,498_1,0.3333,32.35,-21.82,-7.5,11.1,-36.82,2.46,-23.66,-16.38,-25.78,-14.61,35.91,1.3,13.06,-5.17,-2.97,13.47,-1.54,0.72,5.96,7.19,7.17,-16.9,-12.03,0.32
2481367,498_1,0.3361,32.26,-32.17,-4.67,15.37,-35.79,7.74,-19.63,-15.15,-31.15,-15.32,24.33,1.19,21.44,-20.09,-7.29,17.75,-15.74,-4.3,-0.59,10.85,20.95,-21.66,-8.75,0.4
2481368,498_1,0.3389,27.92,-37.35,-2.48,17.08,-32.44,11.42,-15.38,-12.68,-32.89,-14.6,14.28,1.02,25.98,-33.45,-10.55,20.42,-28.03,-9.31,-6.67,13.03,32.75,-24.79,-6.05,0.44
2481369,498_1,0.3417,20.72,-37.32,-1.03,16.4,-27.08,13.31,-11.1,-9.35,-31.11,-12.82,6.11,0.81,26.07,-42.91,-12.36,20.32,-36.66,-13.7,-11.86,12.85,40.63,-25.85,-4.21,0.44
2481370,498_1,0.3444,12.11,-33.03,-0.26,13.99,-20.35,13.57,-6.91,-5.62,-26.58,-10.43,-0.11,0.59,21.99,-46.9,-12.64,16.82,-40.65,-16.99,-15.99,9.9,43.42,-24.76,-3.28,0.4
2481371,498_1,0.3472,3.46,-26.0,-0.06,10.7,-13.05,12.61,-2.91,-2.03,-20.43,-7.85,-4.43,0.38,14.77,-44.97,-11.56,9.97,-39.93,-18.91,-19.05,4.36,40.95,-21.79,-3.13,0.35
2481372,498_1,0.35,-4.08,-17.94,-0.26,7.4,-6.0,10.93,0.78,0.99,-13.91,-5.43,-7.02,0.21,5.88,-37.84,-9.51,0.55,-35.23,-19.42,-21.13,-3.06,34.01,-17.46,-3.48,0.28
2481373,498_1,0.3528,-9.63,-10.37,-0.65,4.77,0.1,8.98,4.06,3.12,-8.03,-3.41,-8.1,0.09,-3.14,-27.08,-6.93,-10.15,-27.81,-18.72,-22.35,-11.3,24.08,-12.46,-4.05,0.22
2481374,498_1,0.3555,-12.69,-4.3,-1.09,3.24,4.8,7.09,6.83,4.17,-3.48,-1.86,-7.94,0.01,-10.98,-14.68,-4.27,-20.63,-19.15,-17.11,-22.78,-19.21,12.95,-7.48,-4.56,0.16
2481375,498_1,0.3583,-13.13,-0.22,-1.43,2.89,7.92,5.39,9.02,4.15,-0.52,-0.77,-6.8,-0.02,-16.75,-2.59,-1.88,-29.52,-10.59,-14.97,-22.5,-25.75,2.3,-3.07,-4.83,0.1
2481376,498_1,0.3611,-11.21,1.93,-1.61,3.56,9.57,3.9,10.59,3.18,1.0,-0.05,-5.01,-0.02,-20.05,7.64,0.0,-35.81,-3.15,-12.63,-21.53,-30.23,-6.57,0.39,-4.78,0.06
2481377,498_1,0.3639,-7.52,2.58,-1.58,4.91,10.01,2.52,11.54,1.49,1.43,0.45,-2.87,0.0,-20.93,15.08,1.29,-39.0,2.56,-10.34,-19.93,-32.3,-12.94,2.76,-4.41,0.03
2481378,498_1,0.3667,-2.91,2.3,-1.36,6.52,9.6,1.15,11.89,-0.63,1.26,0.84,-0.7,0.03,-19.76,19.43,1.99,-39.08,6.36,-8.26,-17.78,-32.02,-16.58,4.06,-3.79,0.0
2481379,498_1,0.3694,1.7,1.69,-0.99,7.96,8.69,-0.27,11.67,-2.86,0.92,1.2,1.19,0.06,-17.12,20.94,2.19,-36.47,8.42,-6.43,-15.18,-29.73,-17.76,4.48,-3.01,-0.02
2481380,498_1,0.3722,5.4,1.16,-0.51,8.89,7.55,-1.73,10.92,-4.86,0.74,1.58,2.59,0.08,-13.63,20.18,2.03,-31.82,9.07,-4.85,-12.26,-25.92,-17.01,4.27,-2.18,-0.04
2481381,498_1,0.375,7.54,0.96,0.01,9.08,6.35,-3.1,9.69,-6.36,0.85,1.97,3.34,0.07,-9.87,17.92,1.64,-25.9,8.76,-3.44,-9.19,-21.17,-14.98,3.67,-1.39,-0.06
2481382,498_1,0.3778,7.73,1.11,0.51,8.43,5.2,-4.17,8.07,-7.09,1.23,2.32,3.4,0.05,-6.3,14.88,1.15,-19.42,7.9,-2.12,-6.11,-15.98,-12.33,2.92,-0.67,-0.07
2481383,498_1,0.3806,5.97,1.49,0.95,7.0,4.16,-4.74,6.2,-6.92,1.77,2.58,2.82,0.01,-3.2,11.67,0.65,-12.97,6.8,-0.8,-3.16,-10.73,-9.56,2.18,-0.07,-0.08
2481384,498_1,0.3833,2.57,1.96,1.3,4.93,3.28,-4.64,4.25,-5.79,2.32,2.71,1.76,-0.04,-0.75,8.7,0.22,-6.93,5.69,0.6,-0.46,-5.69,-7.05,1.55,0.4,-0.08
2481385,498_1,0.3861,-1.89,2.35,1.52,2.46,2.6,-3.79,2.42,-3.8,2.73,2.68,0.42,-0.08,1.01,6.24,-0.11,-1.53,4.66,2.14,1.92,-0.98,-4.98,1.08,0.76,-0.08
2481386,498_1,0.3889,-6.72,2.59,1.62,-0.14,2.19,-2.27,0.89,-1.15,2.96,2.51,-0.96,-0.12,2.08,4.35,-0.33,3.13,3.76,3.84,3.93,3.37,-3.45,0.76,1.0,-0.08
2481387,498_1,0.3917,-11.23,2.69,1.61,-2.59,2.06,-0.3,-0.22,1.82,3.01,2.21,-2.19,-0.15,2.51,3.05,-0.44,7.04,2.97,5.67,5.56,7.3,-2.44,0.59,1.12,-0.07
2481388,498_1,0.3944,-14.87,2.72,1.5,-4.68,2.24,1.8,-0.84,4.73,2.96,1.84,-3.11,-0.17,2.33,2.27,-0.45,10.17,2.32,7.52,6.8,10.74,-1.89,0.52,1.11,-0.05
2481389,498_1,0.3972,-17.25,2.81,1.33,-6.25,2.7,3.68,-1.0,7.22,2.94,1.47,-3.63,-0.17,1.59,1.93,-0.4,12.5,1.83,9.21,7.67,13.53,-1.72,0.54,0.96,-0.04
2481390,498_1,0.4,-18.24,3.06,1.11,-7.24,3.36,5.02,-0.8,8.98,3.06,1.14,-3.75,-0.16,0.32,1.93,-0.29,13.95,1.56,10.53,8.19,15.45,-1.85,0.6,0.67,-0.03
2481391,498_1,0.4028,-17.91,3.58,0.88,-7.66,4.15,5.58,-0.36,9.81,3.41,0.91,-3.52,-0.13,-1.37,2.19,-0.15,14.43,1.54,11.23,8.38,16.27,-2.17,0.69,0.23,-0.02
2481392,498_1,0.4055,-16.48,4.41,0.67,-7.63,4.95,5.26,0.13,9.68,4.05,0.81,-3.03,-0.11,-3.33,2.59,0.0,13.91,1.79,11.14,8.23,15.81,-2.59,0.78,-0.32,-0.02
2481393,498_1,0.4083,-14.27,5.53,0.48,-7.29,5.67,4.08,0.53,8.68,4.97,0.85,-2.39,-0.08,-5.34,2.99,0.17,12.43,2.22,10.18,7.77,14.09,-2.98,0.84,-0.94,-0.01
2481394,498_1,0.4111,-11.63,6.88,0.34,-6.82,6.22,2.21,0.69,7.03,6.1,1.02,-1.72,-0.06,-7.09,3.21,0.32,10.18,2.68,8.42,6.97,11.31,-3.17,0.84,-1.55,-0.01
2481395,498_1,0.4139,-8.89,8.33,0.24,-6.37,6.55,-0.09,0.56,5.0,7.36,1.3,-1.09,-0.03,-8.28,3.1,0.46,7.46,2.92,6.1,5.86,7.88,-3.01,0.77,-2.06,0.0
2481396,498_1,0.4167,-6.31,9.75,0.18,-6.09,6.64,-2.5,0.12,2.93,8.62,1.64,-0.55,-0.02,-8.61,2.5,0.57,4.65,2.71,3.54,4.45,4.37,-2.4,0.58,-2.38,0.01
2481397,498_1,0.4194,-4.08,10.99,0.15,-6.01,6.51,-4.7,-0.55,1.1,9.73,1.98,-0.15,-0.01,-7.9,1.37,0.65,2.15,1.89,1.13,2.82,1.34,-1.29,0.28,-2.45,0.02
2481398,498_1,0.4222,-2.29,11.92,0.14,-6.14,6.2,-6.41,-1.35,-0.26,10.57,2.27,0.13,0.0,-6.11,-0.24,0.67,0.28,0.41,-0.81,1.1,-0.77,0.27,-0.12,-2.21,0.04
2481399,498_1,0.425,-0.96,12.42,0.13,-6.41,5.79,-7.45,-2.11,-1.03,11.04,2.47,0.3,0.01,-3.36,-2.16,0.63,-0.77,-1.59,-2.06,-0.57,-1.72,2.11,-0.59,-1.67,0.06
2481400,498_1,0.4278,-0.01,12.44,0.09,-6.69,5.33,-7.72,-2.7,-1.19,11.07,2.54,0.4,0.02,0.07,-4.11,0.53,-0.99,-3.8,-2.55,-2.01,-1.54,3.96,-1.07,-0.88,0.08
2481401,498_1,0.4306,0.69,11.93,0.02,-6.82,4.85,-7.24,-2.99,-0.84,10.61,2.45,0.47,0.03,3.76,-5.78,0.37,-0.55,-5.85,-2.39,-3.06,-0.52,5.54,-1.5,0.09,0.09
2481402,498_1,0.4333,1.3,10.9,-0.1,-6.67,4.37,-6.13,-2.9,-0.15,9.66,2.2,0.54,0.04,7.28,-6.86,0.17,0.29,-7.33,-1.77,-3.62,0.9,6.57,-1.81,1.11,0.09
2481403,498_1,0.4361,1.98,9.38,-0.26,-6.11,3.88,-4.56,-2.42,0.68,8.25,1.81,0.65,0.06,10.18,-7.17,-0.05,1.21,-7.93,-0.98,-3.62,2.25,6.86,-1.95,2.05,0.09
2481404,498_1,0.4389,2.84,7.45,-0.46,-5.1,3.34,-2.73,-1.57,1.44,6.45,1.31,0.8,0.09,12.17,-6.63,-0.27,1.92,-7.5,-0.28,-3.11,3.11,6.34,-1.9,2.8,0.07
2481405,498_1,0.4417,3.89,5.21,-0.66,-3.64,2.74,-0.86,-0.46,1.98,4.35,0.74,1.0,0.11,13.07,-5.3,-0.46,2.22,-6.06,0.12,-2.18,3.22,5.08,-1.65,3.27,0.05
2481406,498_1,0.4444,5.07,2.83,-0.85,-1.84,2.07,0.87,0.79,2.19,2.12,0.16,1.21,0.13,12.9,-3.37,-0.59,1.99,-3.82,0.12,-1.03,2.47,3.26,-1.24,3.42,0.03
2481407,498_1,0.4472,6.22,0.48,-1.0,0.14,1.36,2.29,2.05,2.05,-0.08,-0.37,1.39,0.14,11.78,-1.1,-0.67,1.14,-1.11,-0.28,0.09,0.93,1.1,-0.72,3.26,0.0
2481408,498_1,0.45,7.13,-1.63,-1.08,2.11,0.66,3.29,3.18,1.58,-2.04,-0.8,1.5,0.15,9.95,1.26,-0.68,-0.36,1.65,-0.97,0.87,-1.22,-1.14,-0.16,2.82,-0.02
2481409,498_1,0.4528,7.57,-3.32,-1.07,3.88,0.05,3.8,4.07,0.85,-3.58,-1.07,1.49,0.15,7.63,3.46,-0.64,-2.49,4.06,-1.78,1.0,-3.73,-3.25,0.38,2.17,-0.04
2481410,498_1,0.4556,7.39,-4.44,-0.95,5.28,-0.39,3.77,4.65,-0.07,-4.57,-1.15,1.34,0.13,5.05,5.34,-0.55,-5.23,5.75,-2.49,0.22,-6.3,-5.05,0.84,1.39,-0.05
2481411,498_1,0.4583,6.53,-4.91,-0.73,6.22,-0.62,3.24,4.9,-1.09,-4.92,-1.06,1.04,0.11,2.37,6.77,-0.44,-8.47,6.49,-2.89,-1.6,-8.65,-6.43,1.19,0.55,-0.06
2481412,498_1,0.4611,5.07,-4.77,-0.43,6.66,-0.63,2.25,4.81,-2.15,-4.67,-0.81,0.63,0.07,-0.26,7.69,-0.32,-11.96,6.18,-2.79,-4.39,-10.48,-7.34,1.4,-0.28,-0.07
2481413,498_1,0.4639,3.18,-4.1,-0.07,6.63,-0.47,0.92,4.4,-3.19,-3.92,-0.46,0.14,0.03,-2.73,8.07,-0.21,-15.35,4.89,-2.12,-7.89,-11.53,-7.73,1.47,-1.05,-0.07
2481414,498_1,0.4667,1.13,-3.09,0.32,6.22,-0.22,-0.64,3.72,-4.16,-2.84,-0.07,-0.37,-0.02,-4.91,7.9,-0.11,-18.14,2.8,-0.87,-11.59,-11.6,-7.59,1.39,-1.71,-0.08
2481415,498_1,0.4694,-0.82,-1.94,0.7,5.49,-0.01,-2.29,2.77,-5.03,-1.62,0.29,-0.83,-0.07,-6.68,7.18,-0.03,-19.81,0.23,0.86,-14.89,-10.54,-6.93,1.19,-2.22,-0.08
2481416,498_1,0.4722,-2.42,-0.82,1.05,4.53,0.05,-3.92,1.58,-5.77,-0.44,0.58,-1.19,-0.11,-7.88,5.94,0.04,-19.87,-2.47,2.88,-17.16,-8.32,-5.77,0.89,-2.54,-0.08
2481417,498_1,0.475,-3.5,0.13,1.35,3.4,-0.12,-5.42,0.18,-6.35,0.55,0.76,-1.44,-0.16,-8.38,4.24,0.1,-17.99,-4.98,4.99,-17.89,-5.02,-4.15,0.51,-2.64,-0.07
2481418,498_1,0.4778,-3.96,0.84,1.56,2.16,-0.54,-6.71,-1.39,-6.73,1.29,0.83,-1.55,-0.19,-8.1,2.16,0.16,-14.13,-7.0,6.96,-16.79,-0.84,-2.16,0.09,-2.52,-0.06
2481419,498_1,0.4806,-3.8,1.31,1.66,0.89,-1.14,-7.7,-2.98,-6.9,1.77,0.8,-1.51,-0.22,-7.02,-0.15,0.23,-8.52,-8.36,8.62,-13.9,3.9,0.07,-0.35,-2.18,-0.03
2481420,498_1,0.4833,-3.04,1.57,1.65,-0.31,-1.8,-8.31,-4.44,-6.82,2.03,0.73,-1.33,-0.23,-5.23,-2.51,0.31,-1.69,-9.0,9.84,-9.51,8.79,2.35,-0.76,-1.66,0.0
2481421,498_1,0.4861,-1.78,1.71,1.49,-1.3,-2.34,-8.47,-5.51,-6.49,2.11,0.64,-1.02,-0.22,-2.91,-4.72,0.4,5.62,-8.94,10.57,-4.21,13.39,4.49,-1.12,-1.03,0.04
2481422,498_1,0.4889,-0.12,1.78,1.2,-1.94,-2.58,-8.1,-5.97,-5.89,2.1,0.58,-0.59,-0.2,-0.32,-6.55,0.5,12.56,-8.31,10.82,1.29,17.28,6.27,-1.4,-0.35,0.08
2481423,498_1,0.4917,1.81,1.84,0.77,-2.13,-2.39,-7.17,-5.64,-5.06,2.04,0.56,-0.07,-0.15,2.24,-7.83,0.59,18.32,-7.25,10.62,6.27,20.08,7.52,-1.56,0.28,0.13
2481424,498_1,0.4944,3.86,1.93,0.23,-1.8,-1.71,-5.69,-4.45,-4.0,1.96,0.6,0.51,-0.09,4.46,-8.38,0.67,22.23,-5.9,10.05,10.13,21.52,8.06,-1.6,0.79,0.16
2481425,498_1,0.4972,5.83,2.06,-0.37,-1.03,-0.57,-3.74,-2.48,-2.76,1.91,0.68,1.1,-0.02,6.12,-8.14,0.72,23.91,-4.39,9.16,12.47,21.46,7.82,-1.5,1.11,0.18
2481426,498_1,0.5,7.55,2.24,-0.98,0.04,0.93,-1.45,0.03,-1.38,1.9,0.78,1.64,0.05,7.07,-7.09,0.72,23.29,-2.78,7.98,13.2,19.92,6.81,-1.27,1.24,0.19
2481427,498_1,0.5028,8.84,2.48,-1.52,1.19,2.62,1.0,2.77,0.12,1.97,0.89,2.08,0.12,7.31,-5.34,0.67,20.62,-1.12,6.53,12.49,17.05,5.11,-0.92,1.17,0.18
2481428,498_1,0.5056,9.57,2.79,-1.94,2.14,4.31,3.39,5.35,1.67,2.15,0.99,2.36,0.18,6.96,-3.08,0.55,16.45,0.55,4.84,10.71,13.19,2.92,-0.48,0.95,0.15
2481429,498_1,0.5083,9.71,3.17,-2.18,2.69,5.83,5.52,7.43,3.22,2.44,1.06,2.46,0.22,6.23,-0.58,0.38,11.5,2.19,2.95,8.41,8.76,0.5,0.0,0.65,0.11
2481430,498_1,0.5111,9.3,3.59,-2.23,2.68,7.0,7.19,8.72,4.66,2.84,1.09,2.37,0.24,5.38,1.86,0.15,6.57,3.75,0.98,6.12,4.27,-1.85,0.49,0.34,0.06
2481431,498_1,0.5139,8.47,3.99,-2.1,2.11,7.71,8.22,9.09,5.86,3.27,1.08,2.12,0.24,4.7,3.95,-0.1,2.37,5.11,-0.93,4.31,0.23,-3.84,0.93,0.1,0.0
2481432,498_1,0.5167,7.39,4.29,-1.82,1.07,7.85,8.52,8.52,6.7,3.64,1.03,1.74,0.21,4.39,5.43,-0.37,-0.56,6.17,-2.61,3.25,-2.91,-5.23,1.27,-0.02,-0.05
2481433,498_1,0.5194,6.24,4.36,-1.42,-0.22,7.38,8.05,7.12,7.01,3.82,0.93,1.29,0.17,4.55,6.14,-0.62,-1.96,6.82,-3.85,3.04,-4.84,-5.88,1.5,0.02,-0.09
2481434,498_1,0.5222,5.19,4.08,-0.99,-1.48,6.29,6.84,5.12,6.69,3.68,0.76,0.84,0.12,5.16,6.06,-0.83,-1.82,6.99,-4.51,3.56,-5.43,-5.75,1.58,0.21,-0.12
2481435,498_1,0.525,4.34,3.35,-0.56,-2.4,4.66,5.04,2.86,5.7,3.1,0.52,0.43,0.07,6.06,5.27,-0.98,-0.44,6.66,-4.49,4.56,-4.75,-4.94,1.52,0.52,-0.14
2481436,498_1,0.5278,3.75,2.14,-0.18,-2.66,2.63,2.88,0.75,4.06,2.04,0.2,0.1,0.02,7.01,3.97,-1.07,1.73,5.89,-3.84,5.7,-3.06,-3.65,1.34,0.9,-0.14
2481437,498_1,0.5306,3.43,0.48,0.1,-2.04,0.44,0.67,-0.79,1.91,0.52,-0.22,-0.13,-0.03,7.73,2.41,-1.09,4.17,4.81,-2.65,6.67,-0.74,-2.13,1.05,1.27,-0.13
2481438,498_1,0.5333,3.37,-1.49,0.28,-0.42,-1.63,-1.3,-1.42,-0.56,-1.33,-0.7,-0.24,-0.07,7.97,0.87,-1.04,6.37,3.6,-1.15,7.24,1.77,-0.65,0.72,1.57,-0.11
2481439,498_1,0.5361,3.5,-3.58,0.34,2.16,-3.3,-2.72,-0.89,-3.09,-3.32,-1.23,-0.24,-0.09,7.58,-0.38,-0.93,7.95,2.45,0.42,7.3,4.04,0.53,0.37,1.74,-0.08
2481440,498_1,0.5389,3.77,-5.52,0.31,5.48,-4.33,-3.42,0.82,-5.42,-5.19,-1.75,-0.15,-0.11,6.55,-1.14,-0.78,8.7,1.58,1.81,6.88,5.73,1.21,0.08,1.75,-0.05
2481441,498_1,0.5417,4.09,-7.05,0.19,9.18,-4.55,-3.36,3.53,-7.34,-6.68,-2.2,0.02,-0.12,4.99,-1.29,-0.61,8.58,1.15,2.8,6.11,6.66,1.28,-0.12,1.59,-0.03
2481442,498_1,0.5444,4.37,-7.93,0.02,12.79,-3.93,-2.65,6.83,-8.7,-7.55,-2.52,0.23,-0.11,3.1,-0.78,-0.43,7.72,1.24,3.25,5.19,6.74,0.71,-0.19,1.28,-0.01
2481443,498_1,0.5472,4.52,-8.02,-0.17,15.82,-2.55,-1.55,10.19,-9.45,-7.67,-2.63,0.47,-0.1,1.15,0.32,-0.28,6.36,1.91,3.07,4.37,6.05,-0.42,-0.1,0.86,0.0
2481444,498_1,0.55,4.45,-7.28,-0.35,17.87,-0.64,-0.39,13.04,-9.66,-6.99,-2.5,0.68,-0.07,-0.6,1.89,-0.18,4.79,3.08,2.29,3.87,4.72,-2.0,0.14,0.39,-0.01
2481445,498_1,0.5528,4.11,-5.82,-0.48,18.66,1.53,0.49,14.9,-9.45,-5.61,-2.12,0.84,-0.05,-1.94,3.74,-0.13,3.31,4.64,0.97,3.82,2.99,-3.82,0.5,-0.08,-0.02
2481446,498_1,0.5556,3.52,-3.83,-0.56,18.11,3.64,0.83,15.43,-9.0,-3.72,-1.51,0.93,-0.02,-2.75,5.61,-0.14,2.15,6.38,-0.73,4.3,1.07,-5.64,0.94,-0.49,-0.04
2481447,498_1,0.5583,2.74,-1.6,-0.57,16.35,5.39,0.49,14.55,-8.46,-1.58,-0.73,0.95,0.01,-2.99,7.26,-0.2,1.48,8.06,-2.64,5.27,-0.78,-7.21,1.39,-0.8,-0.06
2481448,498_1,0.5611,1.91,0.58,-0.5,13.66,6.57,-0.47,12.44,-7.93,0.51,0.14,0.91,0.02,-2.69,8.43,-0.31,1.39,9.42,-4.51,6.58,-2.35,-8.3,1.76,-0.96,-0.09
2481449,498_1,0.5639,1.25,2.45,-0.37,10.48,7.09,-1.82,9.5,-7.43,2.31,0.99,0.86,0.03,-1.9,8.9,-0.41,1.86,10.22,-6.1,8.02,-3.44,-8.69,1.99,-0.96,-0.11
2481450,498_1,0.5667,0.96,3.81,-0.19,7.28,6.96,-3.21,6.3,-6.9,3.63,1.71,0.85,0.03,-0.69,8.52,-0.5,2.84,10.27,-7.14,9.34,-3.88,-8.25,2.01,-0.8,-0.12
2481451,498_1,0.5694,1.25,4.58,0.0,4.51,6.33,-4.19,3.47,-6.25,4.38,2.2,0.93,0.02,0.85,7.23,-0.54,4.19,9.45,-7.39,10.29,-3.53,-6.93,1.79,-0.51,-0.11
2481452,498_1,0.5722,2.26,4.76,0.16,2.53,5.38,-4.41,1.55,-5.36,4.56,2.39,1.13,-0.01,2.63,5.08,-0.51,5.77,7.76,-6.68,10.65,-2.33,-4.78,1.33,-0.1,-0.09
2481453,498_1,0.575,3.95,4.43,0.28,1.56,4.34,-3.62,0.91,-4.16,4.23,2.25,1.45,-0.05,4.5,2.22,-0.4,7.39,5.31,-4.94,10.29,-0.32,-1.95,0.66,0.34,-0.05
2481454,498_1,0.5778,6.14,3.7,0.35,1.6,3.38,-1.82,1.61,-2.65,3.53,1.8,1.86,-0.09,6.28,-1.12,-0.22,8.86,2.3,-2.22,9.13,2.4,1.31,-0.16,0.76,0.0
2481455,498_1,0.5806,8.44,2.71,0.36,2.45,2.59,0.73,3.4,-0.94,2.57,1.08,2.24,-0.12,7.69,-4.59,0.02,10.02,-0.97,1.29,7.22,5.59,4.68,-1.02,1.06,0.06
2481456,498_1,0.5833,10.31,1.56,0.36,3.72,1.97,3.56,5.72,0.79,1.47,0.22,2.45,-0.15,8.45,-7.83,0.29,10.72,-4.17,5.27,4.72,8.96,7.82,-1.84,1.17,0.12
2481457,498_1,0.5861,11.14,0.37,0.38,4.94,1.45,6.04,7.82,2.29,0.34,-0.68,2.34,-0.15,8.29,-10.52,0.56,10.88,-6.95,9.31,1.88,12.15,10.39,-2.51,1.01,0.16
2481458,498_1,0.5889,10.37,-0.79,0.5,5.61,0.93,7.57,8.98,3.32,-0.72,-1.47,1.76,-0.14,7.04,-12.36,0.8,10.5,-9.03,12.96,-0.98,14.84,12.13,-2.97,0.55,0.19
2481459,498_1,0.5917,7.7,-1.81,0.74,5.41,0.35,7.73,8.67,3.7,-1.62,-2.04,0.64,-0.11,4.72,-13.21,0.97,9.69,-10.21,15.81,-3.5,16.73,12.89,-3.15,-0.16,0.19
2481460,498_1,0.5944,3.16,-2.61,1.12,4.23,-0.29,6.38,6.74,3.37,-2.27,-2.29,-0.98,-0.07,1.58,-13.02,1.04,8.63,-10.4,17.53,-5.35,17.69,12.66,-3.07,-1.06,0.17
2481461,498_1,0.5972,-2.79,-3.12,1.6,2.27,-0.91,3.72,3.48,2.35,-2.61,-2.22,-2.95,-0.03,-1.92,-11.92,1.01,7.55,-9.65,17.95,-6.26,17.66,11.54,-2.76,-2.0,0.13
2481462,498_1,0.6,-9.27,-3.29,2.1,0.02,-1.39,0.27,-0.4,0.79,-2.64,-1.86,-4.99,0.02,-5.15,-10.14,0.88,6.71,-8.14,17.09,-6.08,16.79,9.78,-2.3,-2.81,0.08
2481463,498_1,0.6028,-15.17,-3.17,2.52,-1.85,-1.61,-3.26,-3.94,-1.12,-2.42,-1.32,-6.76,0.07,-7.45,-7.98,0.66,6.33,-6.11,15.14,-4.8,15.3,7.68,-1.77,-3.32,0.02
2481464,498_1,0.6056,-19.33,-2.85,2.73,-2.63,-1.51,-6.14,-6.15,-3.15,-2.05,-0.73,-7.92,0.1,-8.26,-5.8,0.36,6.58,-3.86,12.45,-2.57,13.52,5.57,-1.27,-3.41,-0.03
2481465,498_1,0.6083,-20.84,-2.47,2.65,-1.73,-1.09,-7.78,-6.23,-5.11,-1.72,-0.22,-8.19,0.11,-7.27,-3.89,0.03,7.49,-1.69,9.44,0.36,11.79,3.75,-0.87,-3.02,-0.07
2481466,498_1,0.6111,-19.2,-2.22,2.21,1.15,-0.43,-7.83,-3.75,-6.86,-1.61,0.08,-7.45,0.12,-4.52,-2.49,-0.31,8.99,0.17,6.54,3.62,10.38,2.44,-0.63,-2.19,-0.09
2481467,498_1,0.6139,-14.52,-2.24,1.45,5.96,0.35,-6.3,1.2,-8.33,-1.83,0.14,-5.73,0.11,-0.36,-1.7,-0.63,10.87,1.56,4.11,6.81,9.47,1.73,-0.54,-1.01,-0.1
2481468,498_1,0.6167,-7.45,-2.59,0.44,12.24,1.11,-3.47,8.05,-9.49,-2.45,-0.05,-3.27,0.1,4.54,-1.5,-0.88,12.83,2.41,2.37,9.55,9.07,1.59,-0.59,0.31,-0.09
2481469,498_1,0.6194,0.91,-3.23,-0.69,19.18,1.75,0.12,15.83,-10.32,-3.36,-0.39,-0.43,0.08,9.41,-1.76,-1.05,14.51,2.75,1.42,11.53,9.1,1.89,-0.74,1.59,-0.06
2481470,498_1,0.6222,9.26,-3.99,-1.76,25.72,2.23,3.84,23.32,-10.8,-4.37,-0.78,2.38,0.06,13.49,-2.28,-1.1,15.59,2.68,1.17,12.52,9.35,2.42,-0.91,2.62,-0.03
2481471,498_1,0.625,16.36,-4.59,-2.62,30.8,2.58,7.11,29.33,-10.88,-5.19,-1.09,4.76,0.04,16.24,-2.84,-1.05,15.82,2.34,1.45,12.47,9.58,2.96,-1.05,3.28,0.01
2481472,498_1,0.6278,21.3,-4.76,-3.17,33.52,2.88,9.47,32.88,-10.48,-5.5,-1.21,6.41,0.03,17.36,-3.23,-0.9,15.1,1.87,2.03,11.45,9.59,3.32,-1.12,3.51,0.04
2481473,498_1,0.6306,23.6,-4.25,-3.33,33.33,3.22,10.69,33.44,-9.56,-5.06,-1.05,7.18,0.02,16.9,-3.33,-0.68,13.51,1.43,2.68,9.69,9.24,3.38,-1.07,3.35,0.06
2481474,498_1,0.6333,23.26,-2.94,-3.13,30.16,3.69,10.78,30.97,-8.08,-3.76,-0.62,7.08,0.02,15.15,-3.07,-0.43,11.28,1.13,3.21,7.49,8.54,3.08,-0.9,2.9,0.08
2481475,498_1,0.6361,20.7,-0.86,-2.62,24.4,4.32,9.94,25.9,-6.11,-1.64,0.07,6.24,0.03,12.57,-2.51,-0.19,8.78,1.03,3.54,5.21,7.59,2.48,-0.63,2.29,0.08
2481476,498_1,0.6389,16.62,1.78,-1.92,16.87,5.05,8.47,19.07,-3.76,1.06,0.91,4.9,0.03,9.67,-1.76,-0.01,6.44,1.16,3.67,3.21,6.62,1.72,-0.28,1.67,0.08
2481477,498_1,0.6417,11.82,4.63,-1.13,8.62,5.8,6.76,11.54,-1.26,3.99,1.79,3.32,0.04,6.91,-0.97,0.08,4.65,1.47,3.66,1.77,5.87,0.95,0.1,1.17,0.06
2481478,498_1,0.6444,7.06,7.26,-0.37,0.83,6.44,5.11,4.41,1.13,6.7,2.56,1.75,0.05,4.64,-0.32,0.08,3.73,1.92,3.61,1.08,5.53,0.33,0.46,0.85,0.04
2481479,498_1,0.6472,2.96,9.24,0.28,-5.43,6.82,3.76,-1.33,3.08,8.77,3.1,0.4,0.05,3.04,0.07,-0.02,3.82,2.41,3.57,1.21,5.71,0.0,0.77,0.74,0.02
2481480,498_1,0.65,-0.09,10.16,0.77,-9.25,6.84,2.81,-4.91,4.29,9.8,3.31,-0.61,0.04,2.19,0.14,-0.21,4.93,2.85,3.52,2.17,6.36,-0.01,0.99,0.82,-0.01
2481481,498_1,0.6528,-1.87,9.75,1.09,-10.08,6.41,2.28,-5.92,4.51,9.54,3.11,-1.21,0.02,2.01,-0.11,-0.44,6.89,3.15,3.37,3.86,7.3,0.31,1.1,1.03,-0.04
2481482,498_1,0.6556,-2.38,7.94,1.25,-7.75,5.53,2.06,-4.25,3.58,7.9,2.51,-1.43,-0.02,2.39,-0.59,-0.68,9.46,3.25,2.96,6.2,8.28,0.85,1.09,1.29,-0.07
2481483,498_1,0.6583,-1.74,4.82,1.26,-2.51,4.27,2.05,-0.19,1.53,4.99,1.55,-1.3,-0.06,3.19,-1.19,-0.9,12.37,3.14,2.07,9.07,9.0,1.5,0.96,1.53,-0.09
2481484,498_1,0.6611,-0.18,0.71,1.14,4.99,2.74,2.15,5.72,-1.46,1.12,0.32,-0.93,-0.11,4.26,-1.77,-1.05,15.35,2.83,0.58,12.34,9.22,2.1,0.75,1.7,-0.1
2481485,498_1,0.6639,2.0,-3.9,0.93,13.83,1.12,2.31,12.71,-5.06,-3.25,-1.04,-0.4,-0.16,5.44,-2.21,-1.12,18.18,2.38,-1.57,15.85,8.84,2.53,0.48,1.75,-0.11
2481486,498_1,0.6667,4.47,-8.42,0.64,22.9,-0.39,2.52,19.92,-8.79,-7.57,-2.36,0.19,-0.2,6.61,-2.42,-1.1,20.68,1.9,-4.25,19.39,7.88,2.71,0.19,1.7,-0.1
2481487,498_1,0.6694,6.89,-12.28,0.31,31.12,-1.6,2.82,26.51,-12.21,-11.28,-3.47,0.74,-0.21,7.63,-2.37,-1.0,22.69,1.5,-7.17,22.67,6.54,2.6,-0.09,1.53,-0.09
2481488,498_1,0.6722,8.97,-14.97,-0.05,37.56,-2.34,3.23,31.79,-14.88,-13.91,-4.25,1.2,-0.21,8.36,-2.06,-0.83,24.07,1.29,-9.94,25.37,5.08,2.22,-0.33,1.28,-0.07
2481489,498_1,0.675,10.5,-16.2,-0.4,41.63,-2.53,3.78,35.29,-16.55,-15.17,-4.6,1.53,-0.18,8.66,-1.57,-0.61,24.74,1.35,-12.08,27.12,3.85,1.64,-0.49,0.97,-0.04
2481490,498_1,0.6778,11.32,-15.91,-0.74,43.08,-2.16,4.43,36.8,-17.13,-15.02,-4.5,1.72,-0.13,8.41,-1.01,-0.35,24.61,1.72,-13.14,27.61,3.15,0.98,-0.58,0.6,-0.01
2481491,498_1,0.6806,11.43,-14.28,-1.03,42.04,-1.31,5.08,36.37,-16.68,-13.6,-3.99,1.77,-0.06,7.5,-0.54,-0.08,23.67,2.38,-12.79,26.64,3.22,0.4,-0.59,0.19,0.01
2481492,498_1,0.6833,10.85,-11.68,-1.25,38.91,-0.15,5.6,34.21,-15.42,-11.26,-3.17,1.71,0.01,5.91,-0.32,0.21,22.02,3.25,-10.85,24.17,4.16,0.05,-0.55,-0.26,0.03
2481493,498_1,0.6861,9.69,-8.57,-1.38,34.25,1.12,5.85,30.68,-13.63,-8.43,-2.17,1.55,0.08,3.7,-0.49,0.49,19.81,4.19,-7.36,20.35,5.98,0.1,-0.49,-0.73,0.05
2481494,498_1,0.6889,8.08,-5.41,-1.41,28.66,2.31,5.72,26.18,-11.58,-5.52,-1.12,1.31,0.13,1.03,-1.18,0.76,17.31,5.05,-2.57,15.54,8.53,0.65,-0.42,-1.21,0.07
2481495,498_1,0.6917,6.15,-2.57,-1.34,22.71,3.26,5.17,21.14,-9.49,-2.88,-0.14,0.99,0.17,-1.85,-2.42,1.01,14.81,5.67,3.06,10.24,11.57,1.76,-0.38,-1.66,0.08
2481496,498_1,0.6944,4.09,-0.32,-1.16,16.91,3.86,4.25,16.0,-7.53,-0.75,0.67,0.63,0.19,-4.63,-4.16,1.21,12.64,5.92,8.95,5.06,14.77,3.39,-0.38,-2.06,0.09
2481497,498_1,0.6972,2.08,1.22,-0.88,11.69,4.08,3.08,11.16,-5.83,0.75,1.27,0.24,0.18,-6.98,-6.26,1.35,11.08,5.72,14.44,0.6,17.77,5.39,-0.43,-2.36,0.09
2481498,498_1,0.7,0.34,2.01,-0.55,7.43,3.93,1.82,7.03,-4.46,1.58,1.62,-0.13,0.16,-8.6,-8.48,1.41,10.34,5.06,18.86,-2.57,20.22,7.55,-0.51,-2.51,0.09
2481499,498_1,0.7028,-0.91,2.05,-0.2,4.44,3.47,0.64,3.96,-3.5,1.73,1.72,-0.42,0.12,-9.26,-10.53,1.35,10.55,4.03,21.67,-4.03,21.84,9.6,-0.61,-2.48,0.08
2481500,498_1,0.7056,-1.47,1.4,0.13,3.0,2.76,-0.36,2.24,-3.06,1.24,1.58,-0.59,0.07,-8.84,-12.15,1.18,11.72,2.74,22.5,-3.56,22.46,11.26,-0.71,-2.24,0.06
2481501,498_1,0.7083,-1.23,0.1,0.38,3.26,1.89,-1.13,2.01,-3.23,0.14,1.22,-0.57,0.03,-7.32,-13.09,0.9,13.79,1.36,21.24,-1.14,22.08,12.31,-0.78,-1.8,0.04
2481502,498_1,0.7111,-0.17,-1.75,0.52,5.21,0.97,-1.69,3.25,-4.09,-1.5,0.7,-0.37,-0.01,-4.81,-13.24,0.52,16.61,0.08,18.02,3.03,20.8,12.6,-0.81,-1.17,0.02
2481503,498_1,0.7139,1.59,-3.97,0.53,8.63,0.13,-2.13,5.74,-5.65,-3.53,0.07,0.01,-0.04,-1.5,-12.54,0.06,19.95,-0.93,13.23,8.54,18.87,12.11,-0.8,-0.39,-0.01
2481504,498_1,0.7167,3.77,-6.33,0.42,13.06,-0.49,-2.53,9.04,-7.82,-5.73,-0.59,0.51,-0.06,2.34,-11.08,-0.44,23.54,-1.56,7.39,14.85,16.57,10.86,-0.74,0.49,-0.03
2481505,498_1,0.7194,6.02,-8.49,0.2,17.85,-0.75,-2.95,12.57,-10.4,-7.78,-1.15,1.03,-0.06,6.4,-8.98,-0.94,27.02,-1.73,1.1,21.32,14.16,8.99,-0.62,1.41,-0.05
2481506,498_1,0.7222,7.9,-10.07,-0.06,22.21,-0.5,-3.39,15.72,-13.08,-9.32,-1.53,1.48,-0.05,10.36,-6.4,-1.41,30.0,-1.43,-5.05,27.29,11.84,6.63,-0.45,2.3,-0.07
2481507,498_1,0.725,9.05,-10.72,-0.33,25.39,0.29,-3.78,17.92,-15.47,-10.0,-1.61,1.75,-0.04,13.88,-3.53,-1.81,32.09,-0.72,-10.6,32.17,9.69,3.96,-0.21,3.09,-0.08
2481508,498_1,0.7278,9.19,-10.18,-0.54,26.78,1.6,-3.98,18.78,-17.14,-9.59,-1.35,1.79,-0.02,16.68,-0.51,-2.09,32.94,0.31,-15.19,35.46,7.71,1.11,0.09,3.71,-0.09
2481509,498_1,0.7306,8.21,-8.38,-0.66,26.05,3.25,-3.82,18.15,-17.74,-7.99,-0.76,1.55,-0.01,18.54,2.48,-2.24,32.3,1.55,-18.59,36.83,5.86,-1.75,0.46,4.1,-0.09
2481510,498_1,0.7333,6.21,-5.43,-0.67,23.2,4.99,-3.13,16.15,-16.99,-5.3,0.11,1.07,0.0,19.29,5.29,-2.23,30.11,2.88,-20.65,36.13,4.14,-4.48,0.89,4.23,-0.09
2481511,498_1,0.7361,3.44,-1.67,-0.56,18.53,6.48,-1.77,13.14,-14.76,-1.82,1.12,0.42,0.0,18.89,7.72,-2.05,26.53,4.2,-21.29,33.47,2.61,-6.88,1.36,4.1,-0.07
2481512,498_1,0.7389,0.3,2.47,-0.35,12.61,7.38,0.3,9.6,-11.11,2.05,2.13,-0.32,-0.02,17.42,9.56,-1.73,21.96,5.44,-20.49,29.14,1.44,-8.74,1.81,3.72,-0.05
2481513,498_1,0.7417,-2.76,6.48,-0.05,6.15,7.43,3.02,6.11,-6.26,5.83,2.97,-1.01,-0.05,15.05,10.58,-1.29,16.99,6.52,-18.28,23.64,0.87,-9.84,2.2,3.14,-0.03
2481514,498_1,0.7444,-5.31,9.91,0.29,-0.09,6.52,6.26,3.19,-0.62,9.1,3.53,-1.58,-0.08,12.05,10.58,-0.77,12.28,7.38,-14.74,17.57,1.15,-9.99,2.45,2.43,0.0
2481515,498_1,0.7472,-6.97,12.42,0.63,-5.39,4.69,9.78,1.25,5.28,11.54,3.72,-1.94,-0.11,8.76,9.43,-0.22,8.5,7.98,-10.06,11.57,2.45,-9.04,2.5,1.67,0.04
2481516,498_1,0.75,-7.55,13.8,0.94,-9.18,2.19,13.28,0.56,10.83,12.96,3.53,-2.06,-0.14,5.47,7.11,0.31,6.11,8.26,-4.53,6.22,4.81,-6.98,2.29,0.91,0.07
2481517,498_1,0.7528,-6.99,14.02,1.17,-11.04,-0.62,16.43,1.21,15.39,13.29,3.02,-1.94,-0.16,2.49,3.73,0.79,5.36,8.16,1.46,1.94,8.1,-3.89,1.81,0.21,0.11
2481518,498_1,0.7556,-5.4,13.15,1.31,-10.77,-3.29,18.88,3.11,18.37,12.6,2.29,-1.61,-0.17,0.0,-0.46,1.18,6.2,7.67,7.46,-1.02,11.97,-0.03,1.07,-0.38,0.14
2481519,498_1,0.7583,-3.01,11.37,1.34,-8.4,-5.39,20.32,6.02,19.34,11.03,1.45,-1.11,-0.16,-1.89,-5.06,1.46,8.3,6.79,13.0,-2.62,15.99,4.26,0.14,-0.86,0.17
2481520,498_1,0.7611,-0.14,8.89,1.24,-4.21,-6.61,20.52,9.54,18.12,8.77,0.63,-0.52,-0.14,-3.17,-9.6,1.63,11.15,5.59,17.62,-3.01,19.64,8.52,-0.88,-1.22,0.19
2481521,498_1,0.7639,2.86,5.94,1.02,1.33,-6.81,19.37,13.24,14.79,6.02,-0.09,0.1,-0.1,-3.88,-13.61,1.68,14.12,4.16,20.98,-2.49,22.44,12.3,-1.87,-1.47,0.2
2481522,498_1,0.7667,5.67,2.76,0.7,7.59,-6.05,16.95,16.67,9.75,3.0,-0.63,0.7,-0.04,-4.13,-16.62,1.59,16.62,2.68,22.83,-1.41,24.05,15.18,-2.69,-1.61,0.19
2481523,498_1,0.7694,8.02,-0.41,0.3,13.88,-4.52,13.54,19.45,3.64,-0.04,-0.99,1.24,0.02,-4.0,-18.33,1.39,18.17,1.29,23.13,-0.15,24.25,16.86,-3.25,-1.67,0.16
2481524,498_1,0.7722,9.74,-3.29,-0.14,19.56,-2.55,9.55,21.36,-2.78,-2.88,-1.17,1.67,0.1,-3.56,-18.6,1.07,18.48,0.14,22.01,0.98,23.07,17.23,-3.47,-1.63,0.11
2481525,498_1,0.775,10.74,-5.67,-0.59,24.1,-0.48,5.51,22.34,-8.75,-5.25,-1.17,1.98,0.18,-2.85,-17.49,0.65,17.49,-0.68,19.73,1.73,20.7,16.34,-3.35,-1.52,0.05
2481526,498_1,0.7778,11.05,-7.32,-1.01,27.2,1.41,1.96,22.48,-13.62,-6.97,-1.03,2.14,0.24,-1.9,-15.26,0.17,15.34,-1.13,16.69,1.99,17.44,14.41,-2.93,-1.32,-0.02
2481527,498_1,0.7806,10.75,-8.12,-1.37,28.77,2.9,-0.68,21.98,-16.99,-7.9,-0.76,2.14,0.3,-0.73,-12.29,-0.34,12.37,-1.26,13.29,1.77,13.73,11.79,-2.3,-1.05,-0.09
2481528,498_1,0.7833,10.0,-8.08,-1.62,28.94,3.9,-2.19,21.09,-18.73,-8.01,-0.39,2.02,0.34,0.62,-9.03,-0.82,9.04,-1.14,9.92,1.2,9.98,8.9,-1.56,-0.71,-0.16
2481529,498_1,0.7861,8.99,-7.34,-1.77,27.99,4.38,-2.56,20.02,-18.93,-7.45,0.04,1.78,0.35,2.08,-5.9,-1.22,5.86,-0.87,6.87,0.53,6.59,6.1,-0.82,-0.34,-0.21
2481530,498_1,0.7889,7.86,-6.2,-1.79,26.27,4.37,-2.05,18.94,-17.94,-6.45,0.46,1.47,0.33,3.58,-3.27,-1.5,3.31,-0.54,4.32,0.03,3.9,3.73,-0.17,0.05,-0.24
2481531,498_1,0.7917,6.75,-5.05,-1.68,24.17,3.92,-1.08,17.9,-16.16,-5.4,0.78,1.12,0.3,5.01,-1.37,-1.62,1.83,-0.22,2.38,-0.02,2.16,1.99,0.34,0.43,-0.24
2481532,498_1,0.7944,5.76,-4.36,-1.44,22.06,3.06,-0.16,16.89,-14.07,-4.71,0.91,0.79,0.24,6.27,-0.34,-1.58,1.7,0.1,1.07,0.58,1.57,1.01,0.68,0.78,-0.21
2481533,498_1,0.7972,4.95,-4.54,-1.1,20.22,1.82,0.21,15.86,-12.07,-4.75,0.75,0.51,0.17,7.27,-0.23,-1.42,3.06,0.43,0.42,1.92,2.21,0.83,0.85,1.07,-0.17
2481534,498_1,0.8,4.38,-5.85,-0.67,18.83,0.24,-0.3,14.74,-10.44,-5.77,0.23,0.32,0.1,7.94,-0.97,-1.16,5.84,0.82,0.48,3.91,4.09,1.43,0.85,1.31,-0.11
2481535,498_1,0.8028,4.08,-8.34,-0.2,17.95,-1.62,-1.84,13.51,-9.35,-7.84,-0.66,0.23,0.02,8.26,-2.47,-0.87,9.74,1.32,1.26,6.28,7.08,2.73,0.71,1.49,-0.04
2481536,498_1,0.8056,4.09,-11.81,0.29,17.52,-3.65,-4.32,12.13,-8.8,-10.78,-1.85,0.26,-0.05,8.24,-4.54,-0.59,14.28,1.99,2.8,8.67,10.92,4.57,0.44,1.6,0.01
2481537,498_1,0.8083,4.4,-15.81,0.74,17.35,-5.66,-7.43,10.61,-8.69,-14.21,-3.21,0.39,-0.1,7.93,-6.93,-0.38,18.84,2.81,5.01,10.63,15.21,6.72,0.07,1.66,0.05
2481538,498_1,0.8111,4.96,-19.75,1.14,17.2,-7.44,-10.72,8.95,-8.85,-17.61,-4.54,0.59,-0.14,7.43,-9.34,-0.26,22.75,3.76,7.73,11.76,19.47,8.91,-0.38,1.66,0.07
2481539,498_1,0.8139,5.65,-22.99,1.44,16.83,-8.73,-13.73,7.19,-9.08,-20.41,-5.66,0.83,-0.17,6.84,-11.44,-0.22,25.4,4.77,10.68,11.8,23.14,10.84,-0.85,1.63,0.07
2481540,498_1,0.8167,6.34,-25.0,1.63,16.03,-9.34,-16.02,5.36,-9.26,-22.14,-6.38,1.04,-0.18,6.29,-12.93,-0.26,26.37,5.74,13.46,10.66,25.73,12.22,-1.32,1.57,0.05
2481541,498_1,0.8194,6.87,-25.46,1.7,14.74,-9.13,-17.33,3.55,-9.29,-22.51,-6.61,1.18,-0.19,5.87,-13.57,-0.34,25.5,6.51,15.66,8.52,26.83,12.81,-1.71,1.5,0.02
2481542,498_1,0.8222,7.09,-24.28,1.66,13.04,-8.1,-17.52,1.88,-9.17,-21.44,-6.29,1.22,-0.18,5.65,-13.26,-0.43,22.9,6.97,16.88,5.72,26.26,12.5,-1.99,1.41,-0.01
2481543,498_1,0.825,6.95,-21.67,1.5,11.15,-6.38,-16.65,0.53,-8.95,-19.13,-5.49,1.13,-0.16,5.65,-11.99,-0.49,18.96,6.98,16.82,2.77,24.0,11.29,-2.12,1.32,-0.03
2481544,498_1,0.8278,6.47,-17.99,1.24,9.36,-4.19,-14.84,-0.31,-8.7,-15.88,-4.33,0.94,-0.13,5.82,-9.92,-0.5,14.27,6.48,15.36,0.19,20.27,9.32,-2.06,1.24,-0.04
2481545,498_1,0.8306,5.73,-13.68,0.89,7.98,-1.8,-12.28,-0.44,-8.48,-12.12,-2.95,0.67,-0.09,6.11,-7.3,-0.45,9.45,5.44,12.56,-1.56,15.46,6.84,-1.82,1.17,-0.04
2481546,498_1,0.8333,4.87,-9.15,0.49,7.26,0.49,-9.11,0.3,-8.27,-8.17,-1.49,0.38,-0.05,6.41,-4.45,-0.36,5.13,3.93,8.67,-2.18,10.09,4.13,-1.43,1.1,-0.02
2481547,498_1,0.8361,4.02,-4.62,0.06,7.27,2.46,-5.37,1.99,-7.99,-4.25,-0.06,0.12,-0.01,6.62,-1.69,-0.23,1.78,2.08,4.12,-1.58,4.71,1.52,-0.94,1.03,0.0
2481548,498_1,0.8389,3.29,-0.13,-0.38,7.92,3.98,-1.02,4.61,-7.49,-0.36,1.31,-0.05,0.03,6.65,0.67,-0.09,-0.28,0.09,-0.57,0.11,-0.1,-0.7,-0.4,0.96,0.03
2481549,498_1,0.8417,2.7,4.51,-0.78,8.94,5.02,4.09,8.01,-6.57,3.65,2.65,-0.11,0.05,6.47,2.4,0.03,-0.93,-1.78,-4.88,2.62,-3.85,-2.32,0.09,0.87,0.05
2481550,498_1,0.8444,2.27,9.57,-1.13,9.94,5.68,10.07,11.94,-5.0,8.04,4.02,-0.02,0.06,6.03,3.38,0.11,-0.21,-3.28,-8.33,5.6,-6.18,-3.23,0.5,0.76,0.06
2481551,498_1,0.8472,1.97,15.32,-1.42,10.48,6.1,16.95,16.02,-2.67,13.07,5.51,0.23,0.06,5.38,3.61,0.13,1.7,-4.2,-10.6,8.66,-6.88,-3.42,0.77,0.64,0.07
2481552,498_1,0.85,1.78,21.88,-1.64,10.18,6.46,24.56,19.82,0.44,18.83,7.16,0.65,0.02,4.55,3.19,0.1,4.52,-4.39,-11.59,11.5,-5.96,-2.99,0.9,0.5,0.06
2481553,498_1,0.8528,1.7,29.03,-1.79,8.81,6.89,32.44,22.91,4.17,25.14,8.92,1.21,-0.02,3.62,2.32,0.03,7.9,-3.83,-11.4,13.89,-3.65,-2.15,0.89,0.36,0.03
2481554,498_1,0.8556,1.74,36.23,-1.87,6.34,7.44,39.87,24.85,8.17,31.52,10.67,1.92,-0.08,2.67,1.27,-0.07,11.4,-2.62,-10.3,15.7,-0.39,-1.14,0.8,0.23,0.01
2481555,498_1,0.8583,1.95,42.59,-1.87,3.01,8.06,45.87,25.32,11.96,37.17,12.18,2.71,-0.14,1.79,0.3,-0.17,14.55,-0.99,-8.69,16.84,3.21,-0.22,0.66,0.12,-0.02
2481556,498_1,0.8611,2.34,47.03,-1.77,-0.75,8.59,49.42,24.18,14.98,41.15,13.14,3.55,-0.19,1.07,-0.35,-0.24,16.85,0.78,-6.97,17.25,6.5,0.39,0.55,0.03,-0.04
2481557,498_1,0.8639,2.91,48.48,-1.57,-4.35,8.84,49.63,21.45,16.68,42.52,13.28,4.36,-0.23,0.58,-0.52,-0.26,17.87,2.38,-5.5,16.84,8.85,0.54,0.49,-0.02,-0.05
2481558,498_1,0.8667,3.6,46.16,-1.23,-7.17,8.6,45.99,17.43,16.67,40.58,12.38,5.05,-0.24,0.36,-0.16,-0.22,17.31,3.53,-4.46,15.58,9.82,0.18,0.5,-0.04,-0.04
2481559,498_1,0.8694,4.31,39.79,-0.76,-8.64,7.7,38.48,12.59,14.78,35.08,10.36,5.56,-0.23,0.39,0.67,-0.11,15.09,4.09,-3.91,13.45,9.25,-0.62,0.59,-0.03,-0.03
2481560,498_1,0.8722,4.92,29.69,-0.17,-8.45,6.08,27.73,7.52,11.15,26.32,7.32,5.81,-0.19,0.63,1.81,0.05,11.42,4.04,-3.71,10.53,7.29,-1.71,0.72,0.0,0.0
2481561,498_1,0.875,5.36,16.84,0.51,-6.56,3.82,14.86,2.86,6.19,15.14,3.51,5.79,-0.13,0.99,2.98,0.22,6.78,3.5,-3.63,7.03,4.4,-2.83,0.85,0.04,0.03
2481562,498_1,0.8778,5.58,2.67,1.22,-3.25,1.09,1.35,-0.91,0.58,2.8,-0.67,5.52,-0.05,1.35,3.88,0.38,1.89,2.68,-3.36,3.24,1.25,-3.7,0.94,0.07,0.06
2481563,498_1,0.8806,5.62,-11.2,1.88,0.92,-1.85,-11.29,-3.49,-4.93,-9.28,-4.77,5.04,0.03,1.6,4.21,0.48,-2.47,1.84,-2.6,-0.45,-1.4,-4.02,0.94,0.11,0.08
2481564,498_1,0.8833,5.56,-23.21,2.42,5.21,-4.68,-21.72,-4.84,-9.59,-19.76,-8.36,4.44,0.1,1.67,3.71,0.5,-5.53,1.22,-1.11,-3.67,-2.87,-3.55,0.82,0.15,0.08
2481565,498_1,0.8861,5.47,-32.16,2.78,8.91,-7.13,-29.01,-5.14,-12.85,-27.59,-11.06,3.8,0.17,1.51,2.24,0.41,-6.78,1.01,1.23,-6.13,-2.69,-2.17,0.54,0.19,0.07
2481566,498_1,0.8889,5.4,-37.32,2.9,11.43,-8.94,-32.76,-4.71,-14.4,-32.15,-12.61,3.2,0.23,1.15,-0.19,0.23,-6.01,1.27,4.38,-7.66,-0.71,0.12,0.14,0.26,0.04
2481567,498_1,0.8917,5.34,-38.48,2.77,12.42,-9.91,-33.02,-3.91,-14.25,-33.27,-12.9,2.68,0.26,0.64,-3.39,-0.04,-3.38,1.98,8.15,-8.24,2.88,3.14,-0.36,0.35,-0.01
2481568,498_1,0.8944,5.21,-35.9,2.39,11.87,-9.88,-30.28,-3.06,-12.71,-31.19,-11.91,2.24,0.28,0.1,-7.06,-0.35,0.64,3.01,12.2,-8.0,7.58,6.59,-0.9,0.46,-0.06
2481569,498_1,0.8972,4.88,-30.22,1.78,9.99,-8.79,-25.28,-2.39,-10.28,-26.46,-9.76,1.87,0.27,-0.35,-10.75,-0.65,5.37,4.18,16.1,-7.13,12.69,10.08,-1.43,0.6,-0.11
2481570,498_1,0.9,4.22,-22.32,1.0,7.24,-6.66,-18.9,-2.0,-7.56,-19.84,-6.7,1.54,0.23,-0.59,-14.04,-0.9,10.07,5.28,19.36,-5.87,17.46,13.16,-1.87,0.74,-0.15
2481571,498_1,0.9028,3.15,-13.26,0.14,4.17,-3.68,-12.01,-1.83,-5.08,-12.22,-3.04,1.23,0.18,-0.52,-16.51,-1.07,14.07,6.12,21.58,-4.4,21.21,15.47,-2.18,0.88,-0.17
2481572,498_1,0.9056,1.66,-4.15,-0.69,1.38,-0.19,-5.4,-1.73,-3.23,-4.55,0.78,0.91,0.11,-0.11,-17.85,-1.12,16.89,6.57,22.44,-2.88,23.44,16.71,-2.32,0.99,-0.17
2481573,498_1,0.9083,-0.18,3.92,-1.35,-0.62,3.29,0.34,-1.44,-2.17,2.3,4.29,0.61,0.03,0.63,-17.91,-1.07,18.32,6.57,21.77,-1.36,23.93,16.73,-2.3,1.07,-0.15
2481574,498_1,0.9111,-2.16,10.01,-1.74,-1.42,6.16,4.8,-0.68,-1.83,7.55,7.01,0.37,-0.05,1.63,-16.65,-0.92,18.34,6.13,19.58,0.14,22.69,15.52,-2.1,1.1,-0.12
2481575,498_1,0.9139,-4.01,13.47,-1.77,-0.79,7.83,7.81,0.84,-1.98,10.67,8.56,0.24,-0.12,2.78,-14.2,-0.69,17.14,5.34,16.01,1.63,19.93,13.18,-1.76,1.08,-0.07
2481576,498_1,0.9167,-5.46,14.01,-1.43,1.3,7.87,9.43,3.29,-2.31,11.42,8.67,0.24,-0.17,3.94,-10.77,-0.43,14.97,4.29,11.36,3.1,16.03,9.95,-1.29,1.02,-0.02
2481577,498_1,0.9194,-6.29,11.74,-0.8,4.73,6.1,9.84,6.73,-2.54,9.85,7.32,0.37,-0.2,4.98,-6.68,-0.16,12.13,3.12,6.04,4.49,11.39,6.09,-0.72,0.93,0.03
2481578,498_1,0.9222,-6.43,7.09,0.0,9.17,2.64,9.27,10.99,-2.5,6.29,4.64,0.58,-0.19,5.78,-2.29,0.11,8.9,1.94,0.53,5.67,6.47,1.97,-0.11,0.83,0.08
2481579,498_1,0.925,-5.94,0.72,0.77,14.21,-2.1,7.86,15.71,-2.23,1.19,0.94,0.77,-0.15,6.26,2.0,0.33,5.51,0.84,-4.63,6.48,1.69,-2.04,0.51,0.72,0.12
2481580,498_1,0.9278,-5.01,-6.72,1.34,19.37,-7.5,5.63,20.34,-1.92,-4.97,-3.36,0.85,-0.08,6.38,5.77,0.52,2.13,-0.08,-8.91,6.72,-2.58,-5.55,1.07,0.64,0.15
2481581,498_1,0.9306,-3.8,-14.65,1.57,24.19,-12.88,2.44,24.23,-1.85,-11.77,-7.84,0.77,0.01,6.15,8.63,0.64,-1.08,-0.77,-11.8,6.18,-5.99,-8.21,1.49,0.58,0.17
2481582,498_1,0.9333,-2.41,-22.64,1.44,28.22,-17.63,-1.87,26.76,-2.3,-18.85,-12.1,0.56,0.11,5.59,10.27,0.69,-4.03,-1.17,-12.88,4.69,-8.28,-9.72,1.72,0.55,0.17
2481583,498_1,0.9361,-0.82,-30.3,1.0,31.05,-21.24,-7.31,27.45,-3.41,-25.83,-15.83,0.31,0.21,4.76,10.49,0.67,-6.67,-1.25,-11.92,2.13,-9.3,-9.9,1.7,0.54,0.16
2481584,498_1,0.9389,1.09,-37.2,0.4,32.32,-23.42,-13.67,26.02,-5.08,-32.28,-18.76,0.2,0.3,3.75,9.27,0.58,-9.04,-0.98,-8.83,-1.56,-9.0,-8.76,1.42,0.54,0.13
2481585,498_1,0.9417,3.42,-42.78,-0.18,31.69,-24.01,-20.4,22.42,-7.02,-37.6,-20.7,0.41,0.37,2.65,6.78,0.42,-11.27,-0.34,-3.79,-6.39,-7.5,-6.43,0.89,0.54,0.09
2481586,498_1,0.9444,6.19,-46.35,-0.59,28.89,-22.95,-26.68,16.82,-8.76,-41.08,-21.5,1.12,0.4,1.57,3.38,0.22,-13.54,0.64,2.83,-12.26,-5.05,-3.26,0.19,0.53,0.04
2481587,498_1,0.9472,9.21,-47.13,-0.72,23.81,-20.31,-31.53,9.62,-9.78,-41.96,-21.04,2.38,0.4,0.64,-0.44,0.0,-16.08,1.93,10.44,-19.0,-2.04,0.29,-0.6,0.49,-0.02
2481588,498_1,0.95,12.05,-44.46,-0.55,16.52,-16.24,-33.99,1.43,-9.66,-39.63,-19.26,4.14,0.37,-0.01,-4.11,-0.19,-19.03,3.43,18.3,-26.27,1.09,3.71,-1.34,0.44,-0.07
2481589,498_1,0.9528,14.13,-37.99,-0.15,7.47,-10.97,-33.36,-6.99,-8.16,-33.78,-16.19,6.23,0.29,-0.26,-7.08,-0.33,-22.42,5.01,25.59,-33.56,3.87,6.48,-1.93,0.39,-0.11
2481590,498_1,0.9556,14.84,-27.89,0.38,-2.57,-4.93,-29.33,-14.74,-5.36,-24.62,-11.98,8.39,0.19,-0.04,-8.93,-0.41,-26.03,6.47,31.46,-40.17,5.88,8.22,-2.27,0.34,-0.14
2481591,498_1,0.9583,13.77,-14.95,0.91,-12.49,1.35,-22.12,-20.89,-1.57,-12.91,-6.92,10.3,0.08,0.66,-9.38,-0.42,-29.34,7.61,35.1,-45.18,6.85,8.67,-2.29,0.3,-0.14
2481592,498_1,0.9611,10.86,-0.49,1.32,-21.03,7.22,-12.45,-24.59,2.65,0.13,-1.46,11.73,-0.05,1.73,-8.41,-0.38,-31.59,8.18,35.88,-47.57,6.67,7.83,-1.98,0.3,-0.12
2481593,498_1,0.9639,6.51,13.86,1.53,-27.02,12.04,-1.41,-25.29,6.64,12.99,3.88,12.5,-0.16,3.01,-6.22,-0.32,-31.81,8.01,33.36,-46.27,5.42,5.89,-1.41,0.32,-0.1
2481594,498_1,0.9667,1.49,26.46,1.5,-29.64,15.31,9.73,-22.8,9.83,24.21,8.56,12.58,-0.26,4.24,-3.23,-0.26,-29.02,6.95,27.41,-40.42,3.37,3.22,-0.66,0.36,-0.07
2481595,498_1,0.9694,-3.29,36.03,1.26,-28.66,16.76,19.76,-17.47,11.79,32.63,12.12,12.06,-0.32,5.15,0.05,-0.22,-22.5,4.98,18.28,-29.57,0.91,0.3,0.13,0.41,-0.04
2481596,498_1,0.9722,-7.0,41.8,0.84,-24.44,16.42,27.7,-10.09,12.38,37.57,14.29,11.08,-0.36,5.53,3.03,-0.23,-12.04,2.2,6.62,-13.98,-1.53,-2.36,0.83,0.45,-0.03
2481597,498_1,0.975,-9.13,43.59,0.3,-17.94,14.57,32.85,-1.83,11.67,38.91,14.99,9.8,-0.36,5.25,5.25,-0.27,1.8,-1.15,-6.5,5.28,-3.55,-4.33,1.32,0.47,-0.02
2481598,498_1,0.9778,-9.62,41.69,-0.27,-10.41,11.71,34.85,5.98,9.96,36.95,14.35,8.36,-0.34,4.31,6.39,-0.33,17.66,-4.71,-19.66,26.21,-4.89,-5.37,1.53,0.47,-0.02
2481599,498_1,0.9806,-8.76,36.76,-0.78,-3.23,8.41,33.68,12.06,7.62,32.3,12.66,6.84,-0.3,2.88,6.39,-0.4,33.41,-8.03,-31.25,46.1,-5.41,-5.4,1.43,0.45,-0.03
2481600,498_1,0.9833,-7.12,29.67,-1.17,2.44,5.22,29.59,15.46,5.05,25.77,10.32,5.28,-0.25,1.24,5.38,-0.44,46.48,-10.6,-39.64,61.86,-5.15,-4.57,1.06,0.41,-0.05
2481601,498_1,0.9861,-5.33,21.34,-1.38,5.78,2.6,23.11,15.66,2.6,18.22,7.71,3.71,-0.19,-0.27,3.68,-0.45,54.33,-11.96,-43.47,70.6,-4.25,-3.15,0.51,0.37,-0.05
2481602,498_1,0.9889,-3.91,12.71,-1.39,6.51,0.81,15.01,12.71,0.51,10.48,5.22,2.16,-0.14,-1.29,1.7,-0.41,54.99,-11.79,-41.87,70.2,-2.93,-1.51,-0.11,0.35,-0.05
2481603,498_1,0.9917,-3.18,4.62,-1.23,4.79,-0.03,6.2,7.17,-1.08,3.29,3.1,0.69,-0.09,-1.58,-0.15,-0.32,47.55,-9.92,-34.71,59.81,-1.38,0.01,-0.69,0.35,-0.05
2481604,498_1,0.9944,-3.19,-2.22,-0.95,1.2,0.03,-2.33,0.0,-2.1,-2.72,1.51,-0.63,-0.06,-0.99,-1.57,-0.2,32.4,-6.44,-22.61,40.11,0.24,1.15,-1.11,0.4,-0.03
2481605,498_1,0.9972,-3.74,-7.3,-0.6,-3.46,0.78,-9.66,-7.66,-2.59,-7.13,0.49,-1.69,-0.03,0.46,-2.44,-0.07,11.27,-1.63,-6.89,13.32,1.88,1.81,-1.34,0.5,-0.01
2481606,498_1,1.0,-4.51,-10.32,-0.25,-8.31,1.99,-15.08,-14.69,-2.6,-9.68,-0.03,-2.39,0.0,2.64,-2.79,0.06,-13.08,4.04,10.61,-17.2,3.54,2.04,-1.37,0.65,0.02
2481607,498_1,1.0028,-5.11,-11.23,0.07,-12.59,3.39,-18.12,-20.17,-2.23,-10.36,-0.16,-2.66,0.01,5.31,-2.81,0.17,-37.28,9.97,27.83,-47.47,5.28,2.0,-1.22,0.84,0.05
2481608,498_1,1.0056,-5.21,-10.23,0.34,-15.69,4.71,-18.69,-23.51,-1.59,-9.34,-0.06,-2.5,0.02,8.2,-2.75,0.25,-57.97,15.53,42.76,-73.53,7.14,1.92,-0.97,1.07,0.07
2481609,498_1,1.0083,-4.57,-7.69,0.55,-17.28,5.75,-16.95,-24.43,-0.8,-6.95,0.11,-1.93,0.02,11.01,-2.84,0.3,-72.33,20.11,53.71,-92.02,9.1,1.99,-0.7,1.32,0.09
2481610,498_1,1.0111,-3.11,-4.12,0.74,-17.19,6.36,-13.31,-22.98,0.05,-3.63,0.22,-1.03,0.02,13.46,-3.19,0.31,-78.44,23.19,59.44,-100.64,11.04,2.33,-0.46,1.57,0.1
2481611,498_1,1.0139,-0.9,-0.02,0.92,-15.48,6.44,-8.31,-19.38,0.9,0.17,0.17,0.06,0.03,15.31,-3.78,0.3,-75.59,24.42,59.33,-98.39,12.73,2.91,-0.3,1.8,0.1
2481612,498_1,1.0167,1.87,4.13,1.14,-12.31,5.91,-2.45,-14.01,1.7,4.04,-0.07,1.19,0.03,16.33,-4.43,0.26,-64.23,23.64,53.35,-85.62,13.88,3.55,-0.23,1.98,0.1
2481613,498_1,1.0194,4.91,7.96,1.38,-7.93,4.72,3.8,-7.24,2.51,7.66,-0.52,2.24,0.03,16.35,-4.86,0.23,-45.87,20.9,42.11,-63.93,14.23,4.02,-0.23,2.1,0.1
2481614,498_1,1.0222,7.85,11.24,1.66,-2.65,2.88,10.1,0.52,3.37,10.82,-1.14,3.05,0.04,15.3,-4.77,0.19,-22.8,16.5,26.77,-35.87,13.6,4.05,-0.24,2.13,0.09
2481615,498_1,1.025,10.31,13.87,1.94,3.18,0.39,16.23,8.9,4.38,13.45,-1.89,3.53,0.05,13.14,-3.94,0.16,2.25,10.95,8.9,-4.63,11.97,3.44,-0.22,2.06,0.08
2481616,498_1,1.0278,11.91,15.9,2.19,9.16,-2.65,22.05,17.51,5.67,15.55,-2.66,3.62,0.07,10.01,-2.28,0.14,26.48,4.9,-9.64,26.37,9.5,2.12,-0.13,1.87,0.06
2481617,498_1,1.0306,12.31,17.45,2.37,14.84,-6.1,27.48,25.91,7.31,17.23,-3.35,3.3,0.09,6.12,0.1,0.12,47.38,-0.93,-26.95,53.9,6.5,0.18,0.06,1.57,0.05
2481618,498_1,1.0333,11.3,18.73,2.44,19.69,-9.71,32.45,33.57,9.38,18.66,-3.82,2.61,0.11,1.83,2.94,0.07,62.98,-5.88,-41.24,75.27,3.39,-2.14,0.31,1.17,0.03
2481619,498_1,1.0361,8.79,19.98,2.35,23.18,-13.15,36.88,39.91,11.86,20.01,-3.94,1.65,0.12,-2.41,5.8,0.0,72.05,-9.4,-51.12,88.63,0.61,-4.47,0.6,0.72,0.0
2481620,498_1,1.0389,4.89,21.42,2.09,24.82,-16.03,40.61,44.32,14.69,21.46,-3.57,0.57,0.13,-6.15,8.21,-0.1,74.19,-11.13,-55.69,93.1,-1.43,-6.42,0.86,0.25,-0.03
2481621,498_1,1.0417,-0.06,23.16,1.65,24.24,-17.96,43.43,46.22,17.68,23.07,-2.64,-0.45,0.12,-8.96,9.72,-0.24,69.82,-10.95,-54.67,88.87,-2.47,-7.6,1.01,-0.2,-0.07
2481622,498_1,1.0444,-5.53,25.14,1.07,21.33,-18.63,45.02,45.22,20.56,24.77,-1.15,-1.25,0.1,-10.5,9.99,-0.4,60.04,-9.0,-48.45,77.05,-2.37,-7.75,1.01,-0.58,-0.11
2481623,498_1,1.0472,-10.83,27.06,0.41,16.29,-17.85,45.03,41.21,23.0,26.27,0.77,-1.66,0.05,-10.64,8.9,-0.56,46.45,-5.61,-37.98,59.54,-1.2,-6.77,0.82,-0.85,-0.15
2481624,498_1,1.05,-15.18,28.41,-0.24,9.68,-15.65,43.03,34.39,24.59,27.11,2.9,-1.61,-0.01,-9.41,6.52,-0.7,30.91,-1.27,-24.67,38.73,0.85,-4.74,0.43,-0.99,-0.17
2481625,498_1,1.0528,-17.84,28.46,-0.78,2.39,-12.28,38.63,25.29,24.94,26.66,4.88,-1.08,-0.09,-7.06,3.13,-0.77,15.31,3.43,-10.18,17.17,3.46,-1.91,-0.12,-1.0,-0.19
2481626,498_1,1.0556,-18.28,26.46,-1.08,-4.57,-8.17,31.57,14.71,23.72,24.26,6.3,-0.15,-0.18,-3.97,-0.82,-0.76,1.3,7.92,3.8,-2.78,6.24,1.33,-0.75,-0.89,-0.18
2481627,498_1,1.0583,-16.21,21.78,-1.07,-10.21,-3.84,21.73,3.55,20.77,19.37,6.78,1.05,-0.28,-0.59,-4.8,-0.66,-9.94,11.72,15.85,-19.28,8.84,4.55,-1.38,-0.68,-0.16
2481628,498_1,1.0611,-11.78,14.07,-0.69,-13.77,0.18,9.3,-7.31,16.1,11.74,6.04,2.36,-0.38,2.62,-8.33,-0.46,-17.75,14.51,24.94,-31.17,10.96,7.34,-1.92,-0.41,-0.11
2481629,498_1,1.0639,-5.5,3.45,0.04,-14.86,3.47,-5.21,-17.17,9.95,1.5,3.95,3.58,-0.46,5.3,-11.0,-0.2,-22.06,16.17,30.6,-38.12,12.42,9.39,-2.3,-0.12,-0.05
2481630,498_1,1.0667,1.76,-9.46,1.06,-13.52,5.82,-20.99,-25.53,2.74,-10.77,0.63,4.56,-0.51,7.21,-12.61,0.09,-23.28,16.76,32.92,-40.52,13.18,10.55,-2.48,0.15,0.01
2481631,498_1,1.0694,8.94,-23.63,2.22,-10.21,7.21,-36.99,-32.17,-4.96,-24.09,-3.6,5.15,-0.53,8.27,-13.12,0.37,-22.15,16.51,32.41,-39.3,13.32,10.8,-2.44,0.39,0.07
2481632,498_1,1.0722,14.96,-37.66,3.35,-5.64,7.87,-51.98,-37.07,-12.5,-37.21,-8.23,5.29,-0.49,8.52,-12.68,0.59,-19.54,15.74,29.88,-35.67,13.02,10.3,-2.22,0.57,0.12
2481633,498_1,1.075,18.98,-50.03,4.24,-0.69,8.16,-64.74,-40.39,-19.28,-48.73,-12.65,4.92,-0.4,8.13,-11.53,0.73,-16.25,14.78,26.22,-30.84,12.5,9.28,-1.87,0.68,0.15
2481634,498_1,1.0778,20.57,-59.31,4.69,3.81,8.46,-74.14,-42.31,-24.77,-57.36,-16.26,4.1,-0.27,7.3,-10.0,0.76,-12.9,13.9,22.21,-25.78,11.98,7.99,-1.46,0.73,0.16
2481635,498_1,1.0806,19.81,-64.34,4.54,7.23,9.12,-79.28,-42.96,-28.6,-62.03,-18.53,2.92,-0.09,6.26,-8.38,0.69,-9.85,13.28,18.4,-21.14,11.62,6.67,-1.03,0.72,0.15
2481636,498_1,1.0833,17.26,-64.43,3.68,9.22,10.27,-79.59,-42.36,-30.6,-62.15,-19.13,1.54,0.11,5.18,-6.9,0.54,-7.21,12.99,15.12,-17.21,11.53,5.53,-0.66,0.65,0.13
2481637,498_1,1.0861,13.79,-59.52,2.13,9.76,11.86,-74.97,-40.42,-30.76,-57.64,-17.96,0.12,0.31,4.19,-5.73,0.35,-4.95,12.99,12.47,-13.99,11.71,4.66,-0.36,0.54,0.09
2481638,498_1,1.0889,10.3,-50.13,0.01,9.06,13.61,-65.78,-37.08,-29.2,-48.98,-15.17,-1.18,0.5,3.36,-4.95,0.14,-2.96,13.2,10.38,-11.35,12.12,4.12,-0.16,0.39,0.04
2481639,498_1,1.0917,7.46,-37.26,-2.44,7.44,15.14,-52.81,-32.32,-26.12,-37.07,-11.13,-2.24,0.66,2.69,-4.57,-0.06,-1.1,13.5,8.77,-9.09,12.68,3.9,-0.07,0.22,0.0
2481640,498_1,1.0944,5.51,-22.22,-4.92,5.18,16.05,-37.15,-26.29,-21.73,-23.1,-6.33,-3.03,0.76,2.16,-4.56,-0.21,0.68,13.78,7.52,-7.1,13.29,3.97,-0.08,0.03,-0.04
2481641,498_1,1.0972,4.3,-6.39,-7.09,2.52,15.99,-20.01,-19.28,-16.19,-8.28,-1.35,-3.58,0.81,1.73,-4.87,-0.3,2.37,13.99,6.59,-5.35,13.86,4.26,-0.17,-0.17,-0.07
2481642,498_1,1.1,3.35,8.96,-8.64,-0.37,14.71,-2.59,-11.66,-9.7,6.23,3.27,-3.97,0.81,1.34,-5.44,-0.34,3.89,14.11,5.97,-3.89,14.34,4.75,-0.33,-0.38,-0.09
2481643,498_1,1.1028,2.16,22.75,-9.39,-3.28,12.11,14.09,-3.74,-2.48,19.46,7.12,-4.29,0.75,0.97,-6.21,-0.31,5.13,14.16,5.71,-2.84,14.7,5.36,-0.53,-0.58,-0.09
2481644,498_1,1.1056,0.36,34.16,-9.25,-5.86,8.2,29.16,4.28,5.09,30.63,9.9,-4.61,0.66,0.61,-7.08,-0.24,6.0,14.2,5.84,-2.3,14.95,6.04,-0.76,-0.75,-0.09
2481645,498_1,1.1083,-2.15,42.59,-8.29,-7.64,3.12,41.96,12.33,12.5,39.12,11.5,-4.95,0.53,0.27,-7.99,-0.13,6.41,14.29,6.37,-2.37,15.13,6.75,-0.99,-0.9,-0.07
2481646,498_1,1.1111,-5.18,47.67,-6.68,-8.09,-2.9,52.0,20.38,19.13,44.56,11.97,-5.28,0.38,-0.01,-8.86,-0.01,6.33,14.48,7.26,-3.06,15.27,7.41,-1.2,-1.0,-0.06
2481647,498_1,1.1139,-8.37,49.33,-4.66,-6.83,-9.45,58.99,28.36,24.4,46.76,11.48,-5.56,0.23,-0.19,-9.6,0.12,5.78,14.81,8.45,-4.32,15.41,7.98,-1.36,-1.04,-0.03
2481648,498_1,1.1167,-11.31,47.76,-2.49,-3.76,-16.05,62.82,36.01,27.86,45.87,10.27,-5.72,0.07,-0.24,-10.15,0.24,4.8,15.28,9.84,-6.04,15.58,8.4,-1.46,-1.02,-0.01
2481649,498_1,1.1194,-13.69,43.53,-0.39,0.74,-22.11,63.57,42.83,29.36,42.34,8.65,-5.72,-0.08,-0.14,-10.48,0.33,3.51,15.86,11.3,-8.07,15.78,8.66,-1.51,-0.95,0.01
2481650,498_1,1.1222,-15.37,37.43,1.47,5.83,-26.99,61.54,48.05,29.09,36.93,6.92,-5.53,-0.23,0.11,-10.57,0.39,2.05,16.52,12.69,-10.19,15.99,8.73,-1.49,-0.83,0.03
2481651,498_1,1.125,-16.39,30.52,2.97,10.27,-30.11,57.2,50.78,27.55,30.62,5.33,-5.17,-0.36,0.48,-10.44,0.42,0.6,17.16,13.87,-12.19,16.21,8.65,-1.43,-0.68,0.04
2481652,498_1,1.1278,-16.91,23.89,4.07,12.68,-31.01,51.17,50.11,25.48,24.47,4.07,-4.65,-0.47,0.93,-10.16,0.41,-0.66,17.72,14.73,-13.8,16.39,8.46,-1.34,-0.51,0.05
2481653,498_1,1.1306,-17.13,18.54,4.77,11.8,-29.42,44.12,45.39,23.69,19.47,3.24,-3.99,-0.55,1.39,-9.8,0.37,-1.52,18.09,15.13,-14.79,16.5,8.22,-1.25,-0.35,0.05
2481654,498_1,1.1333,-17.22,15.21,5.09,6.83,-25.38,36.7,36.39,22.88,16.37,2.86,-3.22,-0.61,1.82,-9.46,0.3,-1.8,18.23,14.98,-14.96,16.52,8.01,-1.17,-0.21,0.05
2481655,498_1,1.1361,-17.25,14.22,5.06,-2.36,-19.19,29.44,23.46,23.47,15.49,2.86,-2.36,-0.63,2.17,-9.22,0.22,-1.36,18.07,14.26,-14.17,16.43,7.9,-1.14,-0.11,0.04
2481656,498_1,1.1389,-17.19,15.39,4.74,-15.09,-11.46,22.72,7.53,25.46,16.69,3.11,-1.44,-0.61,2.42,-9.14,0.15,-0.16,17.63,12.97,-12.41,16.23,7.93,-1.17,-0.05,0.02
2481657,498_1,1.1417,-16.94,18.09,4.17,-29.9,-3.0,16.66,-9.92,28.44,19.34,3.44,-0.52,-0.56,2.56,-9.29,0.08,1.76,16.93,11.18,-9.75,15.95,8.15,-1.25,-0.02,0.01
2481658,498_1,1.1444,-16.38,21.29,3.4,-44.74,5.26,11.2,-27.08,31.63,22.44,3.69,0.35,-0.47,2.61,-9.67,0.05,4.28,16.06,9.04,-6.4,15.62,8.56,-1.41,-0.04,0.0
2481659,498_1,1.1472,-15.4,23.85,2.49,-57.35,12.42,6.18,-42.02,34.01,24.86,3.7,1.1,-0.35,2.6,-10.27,0.04,7.18,15.12,6.72,-2.64,15.3,9.15,-1.61,-0.08,-0.01
2481660,498_1,1.15,-13.91,24.69,1.51,-65.63,17.72,1.39,-53.04,34.61,25.54,3.36,1.67,-0.21,2.56,-11.04,0.07,10.24,14.24,4.39,1.23,15.04,9.88,-1.85,-0.15,-0.01
2481661,498_1,1.1528,-11.89,23.1,0.52,-68.07,20.66,-3.27,-58.93,32.7,23.8,2.62,2.04,-0.06,2.51,-11.9,0.12,13.21,13.52,2.23,4.9,14.9,10.68,-2.09,-0.22,-0.01
2481662,498_1,1.1556,-9.39,18.87,-0.39,-64.08,21.11,-7.79,-59.2,27.98,19.42,1.52,2.2,0.09,2.45,-12.78,0.2,15.88,13.06,0.34,8.14,14.92,11.48,-2.32,-0.31,-0.01
2481663,498_1,1.1583,-6.55,12.29,-1.17,-54.06,19.31,-12.04,-54.18,20.62,12.71,0.16,2.17,0.22,2.39,-13.57,0.28,18.09,12.89,-1.21,10.77,15.12,12.21,-2.51,-0.39,0.0
2481664,498_1,1.1611,-3.54,4.08,-1.75,-39.34,15.85,-15.89,-45.0,11.22,4.4,-1.34,1.99,0.32,2.29,-14.19,0.36,19.74,13.01,-2.4,12.73,15.47,12.79,-2.62,-0.48,0.0
2481665,498_1,1.1639,-0.6,-4.8,-2.12,-21.89,11.56,-19.24,-33.35,0.69,-4.56,-2.79,1.71,0.38,2.1,-14.57,0.42,20.78,13.37,-3.24,13.99,15.93,13.16,-2.65,-0.56,0.01
2481666,498_1,1.1667,2.03,-13.4,-2.25,-3.93,7.36,-22.12,-21.19,-9.97,-13.2,-4.07,1.36,0.41,1.78,-14.68,0.46,21.19,13.88,-3.74,14.57,16.43,13.3,-2.58,-0.65,0.01
2481667,498_1,1.1694,4.13,-20.89,-2.17,12.48,4.06,-24.65,-10.39,-19.86,-20.72,-5.04,0.96,0.4,1.24,-14.51,0.47,20.98,14.46,-3.89,14.47,16.9,13.18,-2.43,-0.75,0.01
2481668,498_1,1.1722,5.54,-26.75,-1.89,25.76,2.26,-27.03,-2.37,-28.25,-26.58,-5.66,0.53,0.37,0.45,-14.08,0.47,20.19,15.0,-3.68,13.72,17.24,12.84,-2.2,-0.86,0.0
2481669,498_1,1.175,6.21,-30.72,-1.47,34.96,2.22,-29.39,2.05,-34.67,-30.55,-5.9,0.07,0.31,-0.62,-13.45,0.46,18.86,15.41,-3.09,12.37,17.38,12.32,-1.92,-0.99,0.0
2481670,498_1,1.1778,6.14,-32.83,-0.94,39.8,3.83,-31.77,2.75,-38.91,-32.66,-5.79,-0.4,0.22,-1.94,-12.67,0.45,17.1,15.65,-2.12,10.48,17.3,11.66,-1.61,-1.15,-0.01
2481671,498_1,1.1806,5.44,-33.26,-0.36,40.56,6.73,-34.09,0.2,-40.97,-33.09,-5.39,-0.87,0.13,-3.44,-11.82,0.45,15.01,15.69,-0.81,8.15,16.97,10.93,-1.29,-1.34,-0.02
2481672,498_1,1.1833,4.24,-32.27,0.22,37.9,10.41,-36.17,-4.76,-40.98,-32.14,-4.77,-1.32,0.03,-4.99,-10.99,0.48,12.75,15.54,0.75,5.56,16.45,10.22,-0.99,-1.55,-0.02
2481673,498_1,1.1861,2.71,-30.18,0.76,32.66,14.32,-37.78,-11.13,-39.21,-30.09,-3.99,-1.73,-0.06,-6.46,-10.26,0.53,10.52,15.27,2.47,2.88,15.82,9.58,-0.74,-1.77,-0.01
2481674,498_1,1.1889,1.02,-27.3,1.2,25.76,17.99,-38.71,-17.95,-36.02,-27.25,-3.14,-2.07,-0.13,-7.71,-9.7,0.61,8.48,14.97,4.25,0.31,15.19,9.11,-0.56,-1.99,-0.01
2481675,498_1,1.1917,-0.66,-23.92,1.51,18.05,21.1,-38.86,-24.43,-31.83,-23.91,-2.29,-2.31,-0.19,-8.62,-9.39,0.71,6.78,14.76,6.01,-2.04,14.7,8.86,-0.47,-2.19,0.0
2481676,498_1,1.1944,-2.18,-20.34,1.65,10.34,23.5,-38.25,-30.0,-27.15,-20.33,-1.51,-2.44,-0.22,-9.16,-9.38,0.82,5.52,14.74,7.73,-4.08,14.49,8.9,-0.47,-2.35,0.02
2481677,498_1,1.1972,-3.43,-16.88,1.64,3.34,25.14,-36.97,-34.29,-22.5,-16.81,-0.85,-2.46,-0.22,-9.32,-9.69,0.94,4.71,15.01,9.46,-5.87,14.65,9.25,-0.58,-2.49,0.03
2481678,498_1,1.2,-4.32,-13.8,1.48,-2.37,26.06,-35.24,-37.11,-18.37,-13.6,-0.36,-2.37,-0.2,-9.16,-10.32,1.06,4.28,15.59,11.27,-7.52,15.21,9.9,-0.79,-2.57,0.05
2481679,498_1,1.2028,-4.8,-11.32,1.21,-6.38,26.32,-33.22,-38.39,-15.16,-10.94,-0.07,-2.19,-0.15,-8.81,-11.2,1.16,4.09,16.46,13.26,-9.17,16.15,10.79,-1.06,-2.61,0.06
2481680,498_1,1.2056,-4.87,-9.57,0.88,-8.5,25.97,-31.09,-38.15,-13.04,-8.94,0.01,-1.94,-0.09,-8.37,-12.21,1.23,3.97,17.5,15.51,-11.0,17.34,11.82,-1.39,-2.61,0.07
2481681,498_1,1.2083,-4.55,-8.54,0.55,-8.83,25.0,-28.9,-36.52,-11.98,-7.65,-0.08,-1.66,-0.03,-7.98,-13.23,1.25,3.72,18.6,18.04,-13.13,18.66,12.86,-1.72,-2.56,0.07
2481682,498_1,1.2111,-3.86,-8.07,0.25,-7.72,23.42,-26.63,-33.71,-11.65,-6.95,-0.31,-1.37,0.02,-7.71,-14.12,1.21,3.2,19.59,20.84,-15.62,19.95,13.78,-2.04,-2.46,0.06
2481683,498_1,1.2139,-2.87,-7.91,0.01,-5.75,21.21,-24.19,-29.96,-11.59,-6.63,-0.62,-1.06,0.07,-7.64,-14.77,1.12,2.33,20.38,23.82,-18.44,21.09,14.48,-2.29,-2.33,0.05
2481684,498_1,1.2167,-1.61,-7.76,-0.15,-3.54,18.39,-21.45,-25.6,-11.27,-6.44,-0.94,-0.73,0.1,-7.78,-15.13,0.98,1.12,20.91,26.84,-21.48,22.02,14.89,-2.48,-2.17,0.03
2481685,498_1,1.2194,-0.11,-7.37,-0.24,-1.66,15.04,-18.34,-20.93,-10.29,-6.14,-1.23,-0.38,0.1,-8.11,-15.2,0.79,-0.34,21.18,29.75,-24.55,22.72,15.0,-2.59,-2.0,0.01
2481686,498_1,1.2222,1.59,-6.61,-0.27,-0.43,11.35,-14.87,-16.2,-8.48,-5.59,-1.46,0.01,0.1,-8.56,-15.0,0.59,-1.9,21.22,32.33,-27.4,23.22,14.86,-2.61,-1.84,-0.02
2481687,498_1,1.225,3.47,-5.51,-0.26,0.15,7.59,-11.18,-11.6,-6.02,-4.77,-1.63,0.43,0.08,-9.03,-14.59,0.4,-3.37,21.08,34.39,-29.76,23.51,14.5,-2.57,-1.71,-0.05
2481688,498_1,1.2278,5.46,-4.28,-0.23,0.37,4.08,-7.54,-7.28,-3.38,-3.8,-1.77,0.86,0.05,-9.39,-14.03,0.22,-4.59,20.78,35.74,-31.4,23.61,13.98,-2.47,-1.6,-0.07
2481689,498_1,1.2306,7.47,-3.21,-0.17,0.7,1.23,-4.3,-3.32,-1.26,-2.89,-1.9,1.25,0.02,-9.52,-13.34,0.08,-5.46,20.3,36.24,-32.15,23.49,13.34,-2.33,-1.51,-0.08
2481690,498_1,1.2333,9.36,-2.68,-0.08,1.63,-0.6,-1.89,0.13,-0.39,-2.31,-2.06,1.57,-0.01,-9.26,-12.57,-0.02,-5.9,19.64,35.81,-31.92,23.09,12.58,-2.16,-1.42,-0.09
2481691,498_1,1.2361,10.92,-2.95,0.05,3.48,-1.06,-0.71,2.86,-1.34,-2.27,-2.28,1.75,-0.03,-8.52,-11.71,-0.09,-5.93,18.78,34.46,-30.71,22.4,11.73,-1.98,-1.3,-0.09
2481692,498_1,1.2389,11.91,-4.17,0.24,6.29,0.03,-1.07,4.57,-4.37,-2.92,-2.55,1.73,-0.06,-7.24,-10.82,-0.12,-5.56,17.77,32.27,-28.59,21.43,10.83,-1.81,-1.14,-0.08
2481693,498_1,1.2417,12.11,-6.28,0.49,9.73,2.71,-3.11,4.94,-9.35,-4.24,-2.84,1.5,-0.08,-5.45,-9.92,-0.13,-4.84,16.7,29.38,-25.71,20.27,9.91,-1.67,-0.92,-0.07
2481694,498_1,1.2444,11.34,-9.03,0.79,13.24,6.8,-6.73,3.71,-15.76,-6.05,-3.11,1.05,-0.11,-3.25,-9.09,-0.12,-3.83,15.72,25.96,-22.2,19.04,9.04,-1.57,-0.63,-0.05
2481695,498_1,1.2472,9.57,-12.01,1.1,16.12,11.87,-11.57,0.81,-22.75,-8.09,-3.3,0.42,-0.12,-0.8,-8.38,-0.09,-2.54,15.02,22.15,-18.16,17.92,8.29,-1.53,-0.29,-0.03
2481696,498_1,1.25,6.91,-14.72,1.39,17.74,17.31,-17.02,-3.58,-29.31,-10.0,-3.36,-0.3,-0.13,1.7,-7.85,-0.05,-1.0,14.76,18.07,-13.68,17.06,7.7,-1.54,0.08,0.0
2481697,498_1,1.2528,3.66,-16.69,1.6,17.7,22.39,-22.31,-8.95,-34.45,-11.43,-3.25,-1.01,-0.14,4.04,-7.51,0.01,0.78,15.08,13.77,-8.79,16.57,7.3,-1.6,0.46,0.02
2481698,498_1,1.2556,0.22,-17.54,1.7,15.91,26.36,-26.63,-14.58,-37.36,-12.11,-2.96,-1.62,-0.13,6.05,-7.35,0.07,2.78,16.03,9.28,-3.52,16.51,7.08,-1.67,0.8,0.05
2481699,498_1,1.2583,-2.92,-17.07,1.67,12.59,28.62,-29.29,-19.65,-37.57,-11.9,-2.5,-2.03,-0.12,7.6,-7.33,0.12,4.94,17.54,4.69,2.01,16.87,7.0,-1.75,1.09,0.07
2481700,498_1,1.2611,-5.34,-15.32,1.5,8.2,28.81,-29.88,-23.44,-35.04,-10.8,-1.94,-2.18,-0.09,8.63,-7.42,0.17,7.13,19.49,0.17,7.57,17.57,7.02,-1.82,1.3,0.08
2481701,498_1,1.2639,-6.74,-12.54,1.21,3.35,26.92,-28.36,-25.49,-30.14,-8.96,-1.34,-2.07,-0.07,9.13,-7.55,0.19,9.2,21.64,-3.97,12.77,18.53,7.07,-1.86,1.41,0.09
2481702,498_1,1.2667,-6.99,-9.15,0.86,-1.38,23.28,-25.07,-25.69,-23.6,-6.67,-0.78,-1.72,-0.04,9.12,-7.68,0.19,10.92,23.74,-7.32,17.1,19.66,7.11,-1.86,1.42,0.09
2481703,498_1,1.2694,-6.18,-5.66,0.48,-5.52,18.5,-20.66,-24.32,-16.36,-4.25,-0.34,-1.2,-0.01,8.68,-7.79,0.15,12.07,25.55,-9.41,20.01,20.87,7.1,-1.82,1.34,0.08
2481704,498_1,1.2722,-4.55,-2.56,0.13,-8.79,13.33,-15.9,-21.91,-9.39,-2.04,-0.09,-0.59,0.01,7.9,-7.86,0.08,12.46,26.89,-9.85,21.04,22.14,7.03,-1.75,1.16,0.06
2481705,498_1,1.275,-2.44,-0.21,-0.15,-11.07,8.5,-11.59,-19.09,-3.5,-0.29,-0.03,0.03,0.03,6.89,-7.92,-0.02,12.02,27.66,-8.41,19.94,23.46,6.9,-1.67,0.92,0.03
2481706,498_1,1.2778,-0.22,1.19,-0.34,-12.42,4.58,-8.27,-16.46,0.77,0.86,-0.16,0.58,0.05,5.79,-7.97,-0.14,10.78,27.91,-5.15,16.79,24.84,6.73,-1.57,0.63,0.0
2481707,498_1,1.2806,1.8,1.65,-0.44,-12.98,1.89,-6.23,-14.4,3.23,1.4,-0.44,1.04,0.06,4.74,-8.07,-0.26,8.91,27.77,-0.45,12.04,26.28,6.54,-1.48,0.35,-0.03
2481708,498_1,1.2833,3.42,1.34,-0.46,-12.91,0.48,-5.42,-13.04,4.0,1.42,-0.79,1.38,0.06,3.87,-8.23,-0.39,6.7,27.44,5.05,6.39,27.79,6.37,-1.41,0.1,-0.06
2481709,498_1,1.2861,4.53,0.54,-0.42,-12.35,0.16,-5.54,-12.27,3.46,1.08,-1.15,1.61,0.06,3.3,-8.47,-0.49,4.48,27.13,10.59,0.72,29.3,6.24,-1.38,-0.08,-0.09
2481710,498_1,1.2889,5.17,-0.43,-0.35,-11.43,0.62,-6.18,-11.84,2.09,0.57,-1.44,1.75,0.06,3.07,-8.81,-0.57,2.58,27.0,15.38,-4.16,30.71,6.18,-1.38,-0.2,-0.1
2481711,498_1,1.2917,5.42,-1.31,-0.28,-10.24,1.51,-6.9,-11.45,0.35,0.06,-1.62,1.82,0.05,3.16,-9.19,-0.62,1.23,27.05,18.85,-7.63,31.83,6.17,-1.4,-0.23,-0.11
2481712,498_1,1.2944,5.43,-1.93,-0.23,-8.84,2.54,-7.37,-10.85,-1.37,-0.33,-1.68,1.86,0.03,3.47,-9.56,-0.62,0.53,27.15,20.7,-9.44,32.47,6.22,-1.45,-0.2,-0.11
2481713,498_1,1.2972,5.35,-2.24,-0.21,-7.34,3.49,-7.44,-9.93,-2.86,-0.55,-1.64,1.89,0.03,3.87,-9.83,-0.57,0.43,27.03,20.98,-9.76,32.38,6.27,-1.49,-0.13,-0.09
2481714,498_1,1.3,5.29,-2.29,-0.23,-5.82,4.27,-7.12,-8.72,-4.03,-0.6,-1.54,1.92,0.02,4.19,-9.88,-0.48,0.75,26.35,20.03,-9.05,31.37,6.27,-1.51,-0.04,-0.07
2481715,498_1,1.3028,5.33,-2.2,-0.29,-4.41,4.88,-6.57,-7.37,-4.95,-0.52,-1.42,1.97,0.02,4.25,-9.6,-0.34,1.24,24.74,18.41,-8.0,29.28,6.15,-1.49,0.04,-0.04
2481716,498_1,1.3056,5.51,-2.08,-0.36,-3.21,5.37,-6.0,-6.08,-5.71,-0.38,-1.33,2.02,0.03,3.97,-8.89,-0.18,1.62,21.95,16.71,-7.29,26.08,5.86,-1.41,0.12,0.0
2481717,498_1,1.3083,5.8,-2.07,-0.43,-2.34,5.79,-5.64,-5.07,-6.43,-0.26,-1.3,2.09,0.04,3.32,-7.7,0.0,1.65,17.9,15.43,-7.48,21.85,5.34,-1.25,0.18,0.03
2481718,498_1,1.3111,6.13,-2.22,-0.49,-1.86,6.2,-5.65,-4.52,-7.21,-0.2,-1.33,2.14,0.05,2.35,-6.05,0.16,1.21,12.74,14.86,-8.81,16.85,4.58,-1.03,0.23,0.06
2481719,498_1,1.3139,6.43,-2.54,-0.52,-1.8,6.61,-6.1,-4.51,-8.09,-0.23,-1.41,2.17,0.06,1.19,-4.04,0.28,0.28,6.88,15.08,-11.21,11.47,3.58,-0.74,0.28,0.08
2481720,498_1,1.3167,6.59,-2.97,-0.51,-2.16,7.02,-7.0,-5.06,-9.05,-0.34,-1.51,2.17,0.07,0.03,-1.85,0.34,-1.02,0.92,15.95,-14.33,6.22,2.42,-0.43,0.35,0.09
2481721,498_1,1.3194,6.53,-3.44,-0.47,-2.88,7.38,-8.25,-6.09,-10.05,-0.52,-1.6,2.11,0.08,-0.95,0.27,0.33,-2.5,-4.43,17.16,-17.62,1.67,1.18,-0.11,0.43,0.08
2481722,498_1,1.3222,6.22,-3.88,-0.41,-3.87,7.68,-9.72,-7.46,-11.01,-0.72,-1.64,2.02,0.07,-1.62,2.05,0.24,-3.91,-8.49,18.41,-20.51,-1.67,0.0,0.16,0.52,0.06
2481723,498_1,1.325,5.67,-4.21,-0.35,-5.03,7.87,-11.24,-9.0,-11.88,-0.91,-1.63,1.88,0.06,-1.87,3.26,0.09,-5.01,-10.75,19.42,-22.54,-3.41,-1.02,0.36,0.61,0.03
2481724,498_1,1.3278,4.92,-4.41,-0.29,-6.23,7.95,-12.66,-10.55,-12.6,-1.05,-1.57,1.72,0.05,-1.72,3.72,-0.11,-5.62,-10.97,20.01,-23.44,-3.4,-1.76,0.45,0.68,-0.01
2481725,498_1,1.3306,4.1,-4.47,-0.26,-7.37,7.91,-13.85,-11.94,-13.1,-1.12,-1.47,1.56,0.04,-1.21,3.42,-0.32,-5.68,-9.25,20.16,-23.18,-1.74,-2.17,0.42,0.73,-0.05
2481726,498_1,1.3333,3.33,-4.39,-0.27,-8.34,7.73,-14.67,-13.03,-13.33,-1.11,-1.36,1.43,0.04,-0.48,2.43,-0.5,-5.19,-6.02,19.93,-21.97,1.18,-2.24,0.29,0.75,-0.08
2481727,498_1,1.3361,2.77,-4.2,-0.33,-9.05,7.39,-15.01,-13.71,-13.2,-1.01,-1.26,1.35,0.04,0.35,0.97,-0.63,-4.27,-1.92,19.47,-20.16,4.81,-2.0,0.07,0.73,-0.1
2481728,498_1,1.3389,2.51,-3.87,-0.42,-9.41,6.83,-14.78,-13.88,-12.64,-0.83,-1.19,1.33,0.04,1.16,-0.68,-0.69,-3.1,2.28,18.92,-18.16,8.48,-1.53,-0.18,0.69,-0.1
2481729,498_1,1.3417,2.64,-3.41,-0.53,-9.4,6.02,-13.9,-13.5,-11.56,-0.57,-1.16,1.39,0.05,1.84,-2.2,-0.67,-1.85,5.87,18.39,-16.33,11.56,-0.94,-0.44,0.65,-0.09
2481730,498_1,1.3444,3.15,-2.78,-0.66,-8.99,4.91,-12.37,-12.58,-9.93,-0.23,-1.16,1.51,0.05,2.38,-3.32,-0.57,-0.73,8.29,17.95,-14.92,13.54,-0.34,-0.64,0.63,-0.07
2481731,498_1,1.3472,3.99,-1.99,-0.77,-8.24,3.51,-10.25,-11.2,-7.75,0.16,-1.18,1.69,0.06,2.77,-3.84,-0.43,0.15,9.21,17.59,-14.05,14.11,0.18,-0.77,0.66,-0.04
2481732,498_1,1.35,5.03,-1.05,-0.87,-7.23,1.83,-7.71,-9.5,-5.14,0.59,-1.21,1.88,0.06,3.05,-3.67,-0.26,0.71,8.58,17.26,-13.71,13.22,0.54,-0.79,0.76,-0.02
2481733,498_1,1.3528,6.13,-0.02,-0.93,-6.1,-0.03,-5.02,-7.72,-2.3,1.03,-1.24,2.08,0.05,3.26,-2.83,-0.08,0.93,6.59,16.95,-13.82,11.03,0.71,-0.71,0.91,0.01
2481734,498_1,1.3556,7.13,1.02,-0.95,-5.01,-1.98,-2.48,-6.12,0.52,1.43,-1.26,2.25,0.04,3.43,-1.44,0.08,0.85,3.58,16.65,-14.29,7.87,0.69,-0.52,1.12,0.03
2481735,498_1,1.3583,7.88,1.98,-0.93,-4.12,-3.86,-0.43,-4.96,3.03,1.76,-1.28,2.38,0.02,3.56,0.31,0.22,0.55,0.03,16.42,-15.03,4.2,0.51,-0.26,1.35,0.04
2481736,498_1,1.3611,8.29,2.74,-0.86,-3.56,-5.56,0.87,-4.42,4.99,1.97,-1.29,2.44,0.0,3.6,2.18,0.33,0.13,-3.6,16.37,-16.03,0.49,0.23,0.04,1.58,0.04
2481737,498_1,1.3639,8.3,3.24,-0.76,-3.38,-6.95,1.24,-4.61,6.21,2.06,-1.3,2.44,-0.02,3.52,3.94,0.42,-0.32,-6.85,16.6,-17.26,-2.82,-0.09,0.35,1.76,0.04
2481738,498_1,1.3667,7.93,3.45,-0.63,-3.58,-7.97,0.67,-5.51,6.64,2.01,-1.3,2.37,-0.04,3.26,5.4,0.48,-0.71,-9.4,17.2,-18.72,-5.37,-0.39,0.63,1.87,0.04
2481739,498_1,1.3694,7.25,3.38,-0.49,-4.1,-8.61,-0.73,-6.99,6.33,1.84,-1.3,2.25,-0.05,2.81,6.39,0.53,-0.97,-10.99,18.14,-20.34,-6.93,-0.62,0.85,1.88,0.04
2481740,498_1,1.3722,6.35,3.1,-0.37,-4.82,-8.92,-2.72,-8.85,5.45,1.59,-1.3,2.09,-0.06,2.2,6.83,0.58,-1.08,-11.52,19.34,-21.99,-7.41,-0.72,0.97,1.8,0.05
2481741,498_1,1.375,5.37,2.69,-0.26,-5.62,-8.97,-5.0,-10.85,4.24,1.31,-1.28,1.92,-0.07,1.49,6.73,0.62,-1.01,-11.0,20.6,-23.49,-6.87,-0.69,0.98,1.64,0.06
2481742,498_1,1.3778,4.43,2.25,-0.2,-6.39,-8.89,-7.29,-12.78,2.93,1.05,-1.26,1.76,-0.07,0.81,6.14,0.65,-0.8,-9.59,21.68,-24.62,-5.48,-0.54,0.89,1.43,0.07
2481743,498_1,1.3806,3.63,1.86,-0.19,-7.04,-8.78,-9.34,-14.48,1.77,0.85,-1.22,1.62,-0.06,0.24,5.19,0.68,-0.46,-7.53,22.35,-25.17,-3.56,-0.3,0.7,1.2,0.08
2481744,498_1,1.3833,3.05,1.58,-0.24,-7.5,-8.74,-10.97,-15.83,0.9,0.73,-1.17,1.53,-0.05,-0.14,4.06,0.69,-0.05,-5.2,22.48,-25.01,-1.5,-0.03,0.46,0.99,0.1
2481745,498_1,1.3861,2.73,1.41,-0.33,-7.78,-8.78,-12.1,-16.77,0.39,0.71,-1.12,1.49,-0.03,-0.28,2.97,0.68,0.4,-3.03,22.04,-24.12,0.23,0.19,0.2,0.81,0.11
2481746,498_1,1.3889,2.67,1.35,-0.45,-7.86,-8.88,-12.71,-17.28,0.21,0.76,-1.06,1.49,-0.01,-0.21,2.16,0.65,0.85,-1.54,21.12,-22.6,1.14,0.27,-0.02,0.67,0.11
2481747,498_1,1.3917,2.87,1.35,-0.59,-7.76,-8.94,-12.84,-17.34,0.26,0.87,-1.02,1.53,0.01,-0.04,1.85,0.6,1.27,-1.21,19.97,-20.67,0.76,0.12,-0.13,0.57,0.1
2481748,498_1,1.3944,3.29,1.34,-0.73,-7.48,-8.83,-12.54,-16.94,0.39,0.99,-1.0,1.61,0.02,0.14,2.21,0.52,1.64,-2.43,18.86,-18.59,-1.26,-0.33,-0.08,0.5,0.07
2481749,498_1,1.3972,3.89,1.26,-0.84,-7.04,-8.4,-11.89,-16.06,0.43,1.08,-0.99,1.69,0.04,0.19,3.37,0.44,1.95,-5.44,18.05,-16.65,-5.12,-1.09,0.16,0.42,0.04
2481750,498_1,1.4,4.61,1.06,-0.91,-6.47,-7.54,-10.98,-14.73,0.24,1.09,-1.0,1.78,0.04,0.03,5.29,0.34,2.21,-10.2,17.73,-15.04,-10.71,-2.14,0.58,0.33,0.0
2481751,498_1,1.4028,5.38,0.71,-0.93,-5.78,-6.2,-9.93,-13.01,-0.28,1.01,-1.04,1.85,0.04,-0.37,7.81,0.26,2.39,-16.38,17.89,-13.84,-17.63,-3.41,1.16,0.2,-0.04
2481752,498_1,1.4056,6.15,0.19,-0.89,-5.04,-4.39,-8.83,-11.01,-1.18,0.82,-1.1,1.89,0.04,-0.97,10.65,0.2,2.5,-23.3,18.33,-12.98,-25.13,-4.72,1.82,0.03,-0.08
2481753,498_1,1.4083,6.86,-0.44,-0.82,-4.28,-2.22,-7.79,-8.87,-2.42,0.54,-1.17,1.89,0.03,-1.69,13.37,0.16,2.5,-30.09,18.66,-12.2,-32.25,-5.9,2.47,-0.17,-0.11
2481754,498_1,1.4111,7.47,-1.14,-0.71,-3.58,0.12,-6.86,-6.75,-3.88,0.21,-1.26,1.87,0.02,-2.38,15.53,0.14,2.38,-35.78,18.36,-11.15,-37.92,-6.73,3.0,-0.39,-0.12
2481755,498_1,1.4139,7.97,-1.8,-0.59,-2.98,2.44,-6.07,-4.78,-5.4,-0.14,-1.35,1.82,0.01,-2.9,16.71,0.14,2.09,-39.53,16.88,-9.39,-41.22,-7.05,3.3,-0.6,-0.12
2481756,498_1,1.4167,8.38,-2.34,-0.48,-2.51,4.5,-5.41,-3.07,-6.79,-0.45,-1.44,1.76,0.0,-3.14,16.64,0.15,1.63,-40.81,13.8,-6.55,-41.58,-6.74,3.32,-0.77,-0.1
2481757,498_1,1.4194,8.74,-2.7,-0.38,-2.18,6.13,-4.81,-1.64,-7.88,-0.69,-1.51,1.7,-0.01,-3.04,15.29,0.17,1.05,-39.59,8.97,-2.41,-39.0,-5.83,3.03,-0.87,-0.07
2481758,498_1,1.4222,9.08,-2.83,-0.29,-1.95,7.22,-4.19,-0.5,-8.52,-0.83,-1.56,1.66,-0.02,-2.6,12.89,0.2,0.44,-36.41,2.66,2.95,-34.13,-4.47,2.47,-0.87,-0.03
2481759,498_1,1.425,9.47,-2.74,-0.23,-1.78,7.73,-3.51,0.4,-8.65,-0.88,-1.59,1.65,-0.03,-1.92,9.93,0.25,-0.03,-32.27,-4.36,9.1,-28.23,-2.95,1.75,-0.76,0.02
2481760,498_1,1.4278,9.91,-2.5,-0.18,-1.59,7.7,-2.77,1.07,-8.28,-0.87,-1.61,1.67,-0.04,-1.15,7.1,0.34,-0.11,-28.52,-10.85,15.21,-22.98,-1.64,0.99,-0.54,0.06
2481761,498_1,1.4306,10.4,-2.2,-0.15,-1.35,7.19,-2.09,1.44,-7.49,-0.84,-1.62,1.73,-0.05,-0.45,5.11,0.47,0.47,-26.51,-15.24,20.09,-20.18,-0.93,0.35,-0.22,0.09
2481762,498_1,1.4333,10.9,-1.94,-0.12,-1.01,6.26,-1.67,1.38,-6.42,-0.83,-1.64,1.81,-0.06,0.0,4.58,0.67,1.98,-27.3,-15.87,22.41,-21.39,-1.17,-0.05,0.16,0.11
2481763,498_1,1.4361,11.35,-1.8,-0.09,-0.57,4.97,-1.77,0.7,-5.2,-0.88,-1.67,1.92,-0.07,0.11,5.92,0.94,4.61,-31.44,-11.35,20.93,-27.57,-2.57,-0.14,0.55,0.12
2481764,498_1,1.4389,11.67,-1.83,-0.06,-0.04,3.35,-2.63,-0.81,-3.98,-1.02,-1.72,2.02,-0.08,-0.17,9.19,1.25,8.38,-38.81,-0.93,14.81,-38.82,-5.14,0.11,0.91,0.12
2481765,498_1,1.4417,11.79,-2.06,-0.04,0.55,1.44,-4.41,-3.27,-2.86,-1.23,-1.79,2.13,-0.09,-0.78,14.1,1.58,13.12,-48.57,15.19,3.91,-54.26,-8.7,0.66,1.19,0.12
2481766,498_1,1.4444,11.69,-2.43,-0.02,1.14,-0.7,-7.09,-6.63,-1.91,-1.51,-1.88,2.22,-0.09,-1.57,20.05,1.9,18.47,-59.4,35.71,-11.0,-72.16,-12.85,1.41,1.36,0.1
2481767,498_1,1.4472,11.37,-2.9,-0.01,1.71,-2.96,-10.49,-10.69,-1.14,-1.82,-1.98,2.3,-0.09,-2.37,26.21,2.14,23.85,-69.76,58.25,-28.22,-90.17,-17.09,2.24,1.41,0.09
2481768,498_1,1.45,10.87,-3.4,-0.01,2.22,-5.21,-14.22,-15.04,-0.54,-2.13,-2.08,2.36,-0.08,-2.96,31.71,2.29,28.62,-78.17,79.68,-45.27,-105.79,-20.86,3.02,1.34,0.07
2481769,498_1,1.4528,10.26,-3.86,-0.01,2.67,-7.25,-17.81,-19.18,-0.08,-2.41,-2.17,2.4,-0.07,-3.16,35.76,2.31,32.17,-83.61,96.58,-59.26,-116.77,-23.67,3.65,1.19,0.06
2481770,498_1,1.4556,9.61,-4.23,-0.03,3.05,-8.92,-20.76,-22.58,0.29,-2.64,-2.26,2.42,-0.05,-2.81,37.84,2.23,34.02,-85.71,105.85,-67.35,-121.61,-25.17,4.04,1.01,0.05
2481771,498_1,1.4583,9.01,-4.51,-0.04,3.39,-10.09,-22.66,-24.85,0.63,-2.83,-2.33,2.44,-0.04,-1.85,37.76,2.07,33.97,-84.81,105.32,-67.36,-119.83,-25.26,4.19,0.87,0.04
2481772,498_1,1.4611,8.49,-4.69,-0.06,3.72,-10.69,-23.29,-25.74,0.99,-2.98,-2.37,2.44,-0.02,-0.3,35.72,1.87,32.14,-81.87,94.19,-58.15,-112.03,-24.07,4.12,0.83,0.02
2481773,498_1,1.4639,8.07,-4.79,-0.09,4.08,-10.75,-22.65,-25.27,1.39,-3.11,-2.39,2.43,0.0,1.74,32.22,1.7,28.94,-78.24,73.3,-39.98,-99.82,-21.93,3.88,0.94,0.01
2481774,498_1,1.4667,7.75,-4.85,-0.11,4.51,-10.36,-20.97,-23.68,1.82,-3.25,-2.38,2.42,0.02,4.11,27.95,1.59,25.0,-75.29,45.01,-14.52,-85.4,-19.33,3.58,1.23,-0.01
2481775,498_1,1.4694,7.51,-4.91,-0.13,5.02,-9.65,-18.65,-21.4,2.24,-3.43,-2.35,2.39,0.04,6.6,23.67,1.59,21.05,-74.07,12.85,15.31,-71.16,-16.78,3.28,1.68,-0.02
2481776,498_1,1.4722,7.31,-4.99,-0.14,5.64,-8.8,-16.15,-18.92,2.59,-3.64,-2.29,2.36,0.05,9.03,20.01,1.68,17.75,-75.02,-19.03,45.81,-59.21,-14.7,3.04,2.25,-0.04
2481777,498_1,1.475,7.1,-5.11,-0.14,6.34,-7.98,-13.91,-16.69,2.85,-3.89,-2.22,2.31,0.07,11.21,17.35,1.86,15.62,-77.93,-46.57,73.09,-50.95,-13.36,2.88,2.84,-0.05
2481778,498_1,1.4778,6.85,-5.25,-0.13,7.11,-7.32,-12.22,-15.06,3.01,-4.16,-2.14,2.24,0.07,13.03,15.8,2.08,14.9,-81.91,-66.48,93.74,-46.94,-12.78,2.76,3.37,-0.06
2481779,498_1,1.4806,6.52,-5.36,-0.11,7.88,-6.94,-11.16,-14.13,3.15,-4.39,-2.05,2.14,0.08,14.41,15.17,2.29,15.58,-85.72,-76.75,105.4,-46.87,-12.8,2.64,3.75,-0.07
2481780,498_1,1.4833,6.09,-5.39,-0.07,8.6,-6.9,-10.56,-13.81,3.4,-4.53,-1.96,2.01,0.08,15.37,15.07,2.43,17.39,-88.07,-77.0,107.17,-49.7,-13.1,2.43,3.93,-0.06
2481781,498_1,1.4861,5.55,-5.28,0.0,9.2,-7.19,-10.09,-13.78,3.92,-4.51,-1.85,1.82,0.07,15.97,15.06,2.46,19.91,-87.93,-68.44,99.74,-53.99,-13.31,2.1,3.9,-0.03
2481782,498_1,1.4889,4.93,-4.96,0.1,9.59,-7.73,-9.33,-13.64,4.86,-4.32,-1.74,1.58,0.06,16.33,14.71,2.38,22.67,-84.82,-53.58,85.25,-58.22,-13.11,1.6,3.69,0.0
2481783,498_1,1.4917,4.26,-4.45,0.24,9.73,-8.38,-7.88,-12.97,6.29,-3.95,-1.63,1.29,0.04,16.61,13.76,2.19,25.19,-78.88,-35.8,66.84,-61.07,-12.29,0.97,3.38,0.03
2481784,498_1,1.4944,3.63,-3.78,0.41,9.62,-8.94,-5.51,-11.5,8.16,-3.45,-1.52,0.96,0.02,16.94,12.17,1.9,27.1,-70.83,-18.59,48.01,-61.67,-10.86,0.27,3.04,0.06
2481785,498_1,1.4972,3.11,-3.06,0.6,9.29,-9.23,-2.23,-9.15,10.33,-2.92,-1.43,0.62,0.0,17.42,10.08,1.54,28.11,-61.81,-5.0,32.01,-59.71,-8.98,-0.38,2.74,0.09
2481786,498_1,1.5,2.83,-2.38,0.82,8.88,-9.13,1.69,-6.13,12.56,-2.44,-1.36,0.3,-0.03,18.07,7.87,1.16,28.07,-53.16,2.94,21.24,-55.43,-7.02,-0.85,2.53,0.1
2481787,498_1,1.5028,2.84,-1.85,1.02,8.56,-8.61,5.8,-2.87,14.6,-2.1,-1.33,0.07,-0.05,18.82,6.01,0.76,26.94,-46.14,4.55,16.81,-49.62,-5.41,-1.02,2.38,0.09
2481788,498_1,1.5056,3.21,-1.5,1.17,8.57,-7.79,9.54,0.04,16.26,-1.91,-1.34,-0.05,-0.07,19.52,5.02,0.39,24.77,-41.79,0.55,18.46,-43.41,-4.65,-0.81,2.28,0.06
2481789,498_1,1.5083,3.89,-1.32,1.24,9.1,-6.91,12.41,2.02,17.46,-1.84,-1.37,-0.01,-0.07,19.94,5.34,0.07,21.67,-40.76,-7.16,24.66,-38.14,-5.14,-0.17,2.15,0.02
2481790,498_1,1.5111,4.78,-1.17,1.19,10.29,-6.31,14.11,2.61,18.25,-1.76,-1.41,0.19,-0.06,19.79,7.28,-0.2,17.84,-43.21,-15.91,33.0,-35.1,-7.18,0.86,1.93,-0.02
2481791,498_1,1.5139,5.73,-0.92,1.0,12.16,-6.28,14.61,1.65,18.84,-1.51,-1.41,0.55,-0.03,18.74,10.93,-0.37,13.5,-48.87,-22.83,40.71,-35.32,-10.83,2.18,1.56,-0.06
2481792,498_1,1.5167,6.54,-0.37,0.69,14.54,-7.06,14.23,-0.64,19.54,-0.92,-1.36,1.02,0.02,16.52,16.1,-0.45,9.0,-57.09,-25.48,45.29,-39.36,-15.91,3.64,1.0,-0.09
2481793,498_1,1.5194,7.04,0.6,0.27,17.11,-8.71,13.52,-3.7,20.67,0.13,-1.21,1.54,0.07,12.91,22.39,-0.41,4.75,-66.95,-22.38,45.03,-47.27,-22.02,5.07,0.23,-0.11
2481794,498_1,1.5222,7.09,2.05,-0.2,19.41,-11.1,13.2,-6.72,22.48,1.68,-0.97,2.03,0.13,7.86,29.13,-0.23,1.28,-77.38,-13.36,39.45,-58.44,-28.53,6.27,-0.73,-0.1
2481795,498_1,1.525,6.66,3.91,-0.65,20.95,-13.92,13.95,-8.82,25.14,3.63,-0.64,2.43,0.17,1.54,35.55,0.09,-0.81,-87.32,0.33,29.39,-71.76,-34.64,7.07,-1.84,-0.07
2481796,498_1,1.5278,5.8,6.01,-1.01,21.28,-16.71,16.26,-9.22,28.62,5.8,-0.27,2.65,0.2,-5.55,40.72,0.54,-0.89,-95.71,16.26,16.91,-85.59,-39.48,7.31,-2.99,-0.02
2481797,498_1,1.5306,4.63,8.11,-1.22,20.1,-19.02,20.34,-7.44,32.75,7.93,0.12,2.68,0.2,-12.57,43.68,1.12,1.62,-101.47,31.29,4.81,-97.99,-42.1,6.91,-4.07,0.04
2481798,498_1,1.5333,3.36,9.93,-1.23,17.33,-20.45,26.04,-3.38,37.25,9.76,0.46,2.51,0.17,-18.22,43.46,1.79,7.14,-103.42,42.14,-3.92,-106.84,-41.53,5.83,-4.86,0.11
2481799,498_1,1.5361,2.22,11.29,-1.05,13.1,-20.77,32.95,2.66,41.78,11.08,0.71,2.17,0.12,-20.76,39.09,2.5,15.77,-100.2,46.1,-6.8,-109.95,-36.84,4.03,-5.11,0.17
2481800,498_1,1.5389,1.42,12.08,-0.69,7.75,-19.96,40.47,10.07,46.05,11.8,0.85,1.71,0.05,-17.99,29.59,3.21,27.24,-90.24,41.6,-2.39,-105.28,-27.1,1.56,-4.45,0.21
2481801,498_1,1.5417,1.17,12.32,-0.21,1.73,-18.24,47.93,18.04,49.8,11.96,0.85,1.22,-0.03,-7.36,14.1,3.86,40.82,-71.77,28.55,9.31,-91.09,-11.49,-1.55,-2.44,0.22
2481802,498_1,1.5444,1.57,12.15,0.3,-4.46,-15.95,54.71,25.72,52.89,11.71,0.74,0.78,-0.12,13.87,-8.15,4.37,55.33,-43.05,8.5,26.78,-66.13,10.68,-5.25,1.39,0.21
2481803,498_1,1.5472,2.64,11.77,0.78,-10.31,-13.52,60.32,32.35,55.26,11.26,0.55,0.46,-0.19,48.28,-37.64,4.67,69.22,-2.67,-15.55,47.13,-29.84,39.8,-9.49,7.56,0.17
2481804,498_1,1.55,4.28,11.36,1.17,-15.43,-11.33,64.46,37.36,56.91,10.8,0.3,0.3,-0.24,97.98,-74.48,4.7,80.82,50.1,-39.59,66.6,17.44,75.9,-14.19,16.45,0.09
2481805,498_1,1.5528,6.29,11.04,1.42,-19.48,-9.66,66.97,40.38,57.88,10.47,0.04,0.33,-0.27,164.03,-118.26,4.4,88.52,114.92,-59.23,81.18,74.38,118.47,-19.3,28.33,-0.02
2481806,498_1,1.5556,8.41,10.86,1.52,-22.28,-8.64,67.85,41.32,58.18,10.3,-0.22,0.51,-0.27,246.08,-167.93,3.74,91.13,190.15,-70.51,87.43,138.61,166.41,-24.72,43.17,-0.16
2481807,498_1,1.5583,10.36,10.74,1.48,-23.74,-8.22,67.22,40.26,57.84,10.21,-0.47,0.81,-0.25,341.97,-221.78,2.71,88.13,272.81,-70.71,83.16,206.93,218.02,-30.32,60.62,-0.34
2481808,498_1,1.5611,11.91,10.56,1.33,-23.93,-8.25,65.27,37.5,56.87,10.1,-0.69,1.15,-0.22,447.63,-277.53,1.37,79.83,358.83,-58.98,67.97,275.65,271.08,-35.94,79.93,-0.53
2481809,498_1,1.5639,12.9,10.22,1.1,-22.99,-8.53,62.29,33.42,55.32,9.83,-0.9,1.47,-0.16,557.29,-332.47,-0.19,67.37,443.5,-36.64,43.45,341.04,323.02,-41.39,100.07,-0.74
2481810,498_1,1.5667,13.28,9.66,0.84,-21.18,-8.87,58.56,28.45,53.25,9.33,-1.08,1.74,-0.1,664.1,-383.79,-1.84,52.51,522.13,-6.98,12.9,399.88,371.26,-46.45,119.76,-0.94
2481811,498_1,1.5694,13.08,8.89,0.57,-18.82,-9.19,54.42,23.02,50.79,8.64,-1.23,1.93,-0.04,761.2,-428.97,-3.42,37.3,590.84,25.42,-19.4,449.93,413.55,-50.9,137.7,-1.13
2481812,498_1,1.5722,12.42,8.04,0.31,-16.23,-9.49,50.2,17.51,48.15,7.86,-1.33,2.03,0.02,,,,,,,,,,,,
2481813,498_1,1.575,11.43,7.3,0.07,-13.74,-9.83,46.18,12.2,45.54,7.18,-1.35,2.04,0.07,,,,,,,,,,,,
2481814,498_1,1.5778,10.25,6.86,-0.14,-11.63,-10.35,42.65,7.29,43.21,6.79,-1.28,1.99,0.11,,,,,,,,,,,,
2481815,498_1,1.5806,8.98,6.86,-0.32,-10.14,-11.13,39.83,2.9,41.38,6.84,-1.1,1.88,0.13,,,,,,,,,,,,
2481816,498_1,1.5833,7.65,7.35,-0.46,-9.4,-12.21,37.87,-0.92,40.27,7.38,-0.83,1.73,0.14,,,,,,,,,,,,
2481817,498_1,1.5861,6.26,8.3,-0.55,-9.47,-13.53,36.93,-4.16,39.99,8.36,-0.49,1.53,0.14,,,,,,,,,,,,
2481818,498_1,1.5889,4.73,9.53,-0.59,-10.29,-14.98,37.09,-6.9,40.63,9.63,-0.1,1.27,0.12,,,,,,,,,,,,
2481819,498_1,1.5917,2.98,10.82,-0.55,-11.72,-16.43,38.4,-9.29,42.18,10.96,0.27,0.93,0.09,,,,,,,,,,,,
2481820,498_1,1.5944,0.88,11.92,-0.43,-13.52,-17.73,40.87,-11.53,44.56,12.11,0.58,0.5,0.05,,,,,,,,,,,,
2481821,498_1,1.5972,-1.67,12.61,-0.21,-15.44,-18.8,44.46,-13.89,47.65,12.85,0.78,-0.06,0.0,,,,,,,,,,,,
2481822,498_1,1.6,-4.75,12.74,0.08,-17.19,-19.61,49.05,-16.65,51.25,13.04,0.86,-0.74,-0.06,,,,,,,,,,,,
2481823,498_1,1.6028,-8.4,12.3,0.46,-18.58,-20.14,54.45,-20.03,55.16,12.65,0.81,-1.55,-0.12,,,,,,,,,,,,
2481824,498_1,1.6056,-12.61,11.4,0.87,-19.55,-20.41,60.37,-24.13,59.17,11.79,0.64,-2.48,-0.18,,,,,,,,,,,,
2481825,498_1,1.6083,-17.27,10.29,1.29,-20.2,-20.4,66.46,-28.86,63.13,10.71,0.38,-3.5,-0.23,,,,,,,,,,,,
2481826,498_1,1.6111,-22.19,9.36,1.66,-20.87,-20.04,72.32,-33.94,66.93,9.73,0.08,-4.58,-0.27,,,,,,,,,,,,
2481827,498_1,1.6139,-27.13,9.05,1.93,-22.01,-19.23,77.52,-38.92,70.57,9.3,-0.2,-5.67,-0.29,,,,,,,,,,,,
2481828,498_1,1.6167,-31.77,9.81,2.05,-24.17,-17.84,81.66,-43.26,74.07,9.84,-0.41,-6.72,-0.29,,,,,,,,,,,,
2481829,498_1,1.6194,-35.81,12.05,1.97,-27.85,-15.76,84.42,-46.43,77.48,11.73,-0.5,-7.68,-0.27,,,,,,,,,,,,
2481830,498_1,1.6222,-38.95,16.03,1.68,-33.39,-12.97,85.59,-48.02,80.8,15.23,-0.44,-8.52,-0.21,,,,,,,,,,,,
2481831,498_1,1.625,-41.02,21.83,1.19,-40.85,-9.58,85.06,-47.84,83.91,20.41,-0.21,-9.22,-0.13,,,,,,,,,,,,
2481832,498_1,1.6278,-41.97,29.31,0.53,-50.0,-5.8,82.9,-45.98,86.59,27.15,0.18,-9.78,-0.02,,,,,,,,,,,,
2481833,498_1,1.6306,-41.93,38.14,-0.24,-60.33,-1.95,79.32,-42.8,88.51,35.18,0.73,-10.21,0.1,,,,,,,,,,,,
2481834,498_1,1.6333,-41.14,47.86,-1.04,-71.17,1.63,74.65,-38.89,89.32,44.09,1.41,-10.56,0.22,,,,,,,,,,,,
2481835,498_1,1.6361,-39.97,57.98,-1.78,-81.84,4.68,69.34,-34.97,88.77,53.45,2.23,-10.83,0.32,,,,,,,,,,,,
2481836,498_1,1.6389,-38.79,68.1,-2.41,-91.82,7.12,63.91,-31.82,86.83,62.9,3.19,-11.07,0.4,,,,,,,,,,,,
2481837,498_1,1.6417,-37.94,77.96,-2.86,-100.87,9.16,58.93,-30.16,83.79,72.23,4.31,-11.25,0.43,,,,,,,,,,,,
2481838,498_1,1.6444,-37.64,87.56,-3.13,-109.15,11.34,54.97,-30.64,80.32,81.46,5.61,-11.4,0.43,3127.83,-1337.43,526.87,3769.73,-66.78,-1186.51,3503.16,1306.03,1286.11,204.3,159.94,-3.16
2481839,498_1,1.6472,-37.97,97.13,-3.27,-117.18,14.44,52.56,-33.75,77.42,90.81,7.14,-11.48,0.38,2447.83,-1019.91,411.24,2916.55,-69.53,-940.01,2730.47,994.88,980.09,164.86,121.64,-2.4
2481840,498_1,1.65,-38.85,107.07,-3.35,-125.69,19.4,52.11,-39.8,76.25,100.65,8.92,-11.5,0.3,1802.73,-717.81,302.03,2107.1,-71.93,-707.42,1998.23,699.88,688.85,128.11,85.24,-1.67
2481841,498_1,1.6528,-40.09,117.79,-3.45,-135.48,27.08,53.85,-48.9,77.93,111.37,10.96,-11.44,0.21,1227.05,-447.23,205.24,1384.99,-73.64,-501.49,1345.96,437.11,427.92,96.15,52.7,-1.02
2481842,498_1,1.6556,-41.4,129.52,-3.68,-147.09,37.98,57.75,-60.89,83.14,123.2,13.23,-11.32,0.12,744.73,-219.91,124.94,780.82,-74.28,-330.62,801.02,217.96,208.59,70.28,25.44,-0.46
2481843,498_1,1.6583,-42.48,142.11,-4.1,-160.54,51.99,63.42,-75.28,91.85,136.02,15.63,-11.11,0.05,367.18,-42.13,62.92,309.63,-73.48,-198.13,376.25,48.16,37.0,50.79,4.27,-0.03
2481844,498_1,1.6611,-42.98,154.86,-4.74,-175.17,68.17,70.13,-91.28,103.11,149.23,18.02,-10.83,0.02,93.9,85.14,18.84,-28.52,-71.02,-102.7,70.73,-72.08,-85.86,37.12,-10.69,0.27
2481845,498_1,1.6639,-42.6,166.46,-5.58,-189.57,84.7,76.83,-107.73,114.94,161.72,20.14,-10.44,0.02,-84.92,165.37,-9.26,-245.54,-66.84,-39.5,-127.29,-147.0,-163.29,28.07,-19.89,0.46
2481846,498_1,1.6667,-41.02,175.09,-6.54,-201.7,99.05,82.27,-123.21,124.54,171.91,21.73,-9.92,0.07,-185.12,205.13,-24.35,-361.16,-61.08,-1.68,-236.41,-183.82,-201.57,22.15,-24.16,0.54
2481847,498_1,1.6694,-37.96,178.65,-7.5,-209.18,108.24,85.14,-136.18,128.68,177.96,22.46,-9.23,0.15,-225.18,212.63,-29.74,-398.66,-53.99,18.17,-278.17,-191.12,-208.6,17.85,-24.63,0.53
2481848,498_1,1.6722,-33.13,175.12,-8.3,-209.73,109.47,84.29,-145.06,124.31,178.11,22.02,-8.32,0.25,-223.47,196.51,-28.61,-381.29,-45.86,26.88,-273.64,-177.51,-192.71,13.99,-22.46,0.46
2481849,498_1,1.675,-26.29,163.01,-8.8,-201.63,100.66,78.94,-148.49,109.24,171.03,20.21,-7.16,0.36,-196.27,164.91,-23.66,-329.75,-36.99,29.87,-241.13,-150.73,-161.78,9.81,-18.76,0.35
2481850,498_1,1.6778,-17.3,141.82,-8.89,-184.2,81.1,68.88,-145.42,82.84,156.2,16.95,-5.74,0.46,-156.57,124.96,-16.99,-260.83,-27.73,30.79,-194.96,-117.17,-122.74,5.03,-14.47,0.22
2481851,498_1,1.6806,-6.17,112.32,-8.48,-158.03,51.83,54.61,-135.35,46.47,134.11,12.36,-4.09,0.54,-113.76,82.58,-10.08,-187.03,-18.48,31.43,-145.17,-81.79,-81.35,-0.19,-10.26,0.09
2481852,498_1,1.6833,6.88,76.62,-7.57,-125.09,15.72,37.42,-118.39,3.57,106.31,6.75,-2.27,0.57,-73.73,42.42,-3.86,-116.84,-9.71,32.13,-97.9,-48.23,-42.12,-5.41,-6.53,-0.03
2481853,498_1,1.6861,21.31,38.0,-6.22,-88.42,-22.9,19.36,-95.36,-40.74,75.23,0.64,-0.38,0.56,-39.53,7.84,1.17,-55.43,-1.95,32.25,-56.29,-18.99,-8.35,-10.07,-3.46,-0.13
2481854,498_1,1.6889,36.33,0.39,-4.55,-51.66,-58.92,2.99,-67.81,-80.5,43.79,-5.36,1.48,0.51,-12.17,-19.06,4.82,-5.32,4.33,30.74,-21.32,4.44,17.92,-13.66,-1.05,-0.2
2481855,498_1,1.6917,50.89,-32.3,-2.73,-18.4,-87.54,-9.09,-37.86,-110.12,14.88,-10.61,3.18,0.41,8.6,-37.33,7.09,32.88,8.81,26.69,7.25,21.42,35.77,-15.85,0.78,-0.24
2481856,498_1,1.6944,63.86,-56.96,-0.92,8.49,-105.25,-14.83,-8.02,-125.64,-9.13,-14.58,4.63,0.28,23.63,-47.05,8.12,59.78,11.31,19.6,30.22,32.0,45.29,-16.48,2.16,-0.25
2481857,498_1,1.6972,74.14,-71.86,0.71,27.38,-110.51,-13.42,19.15,-125.61,-26.77,-16.96,5.73,0.14,33.84,-49.08,8.12,76.74,11.91,9.54,48.47,36.78,47.33,-15.64,3.19,-0.23
2481858,498_1,1.7,80.84,-76.91,2.04,38.1,-104.04,-5.58,41.31,-111.48,-37.66,-17.67,6.42,0.0,40.06,-44.86,7.31,85.36,10.83,-2.84,62.66,36.68,43.29,-13.56,3.94,-0.19
2481859,498_1,1.7028,83.35,-73.58,2.97,41.78,-88.43,6.38,56.66,-87.13,-42.37,-16.89,6.65,-0.12,42.94,-36.06,5.95,87.24,8.42,-16.48,73.11,32.79,34.82,-10.57,4.46,-0.14
2481860,498_1,1.7056,81.46,-64.37,3.49,40.43,-67.37,19.2,64.1,-57.85,-42.19,-14.97,6.39,-0.22,42.99,-24.42,4.26,83.79,5.12,-30.09,79.9,26.22,23.61,-7.07,4.77,-0.09
2481861,498_1,1.7083,75.31,-52.2,3.63,36.37,-44.84,29.42,63.32,-29.0,-38.7,-12.36,5.64,-0.3,40.66,-11.54,2.45,76.28,1.35,-42.42,82.98,18.05,11.22,-3.41,4.92,-0.04
2481862,498_1,1.7111,65.42,-39.71,3.44,31.61,-24.27,34.29,54.85,-4.79,-33.51,-9.51,4.44,-0.34,36.42,1.19,0.71,65.82,-2.51,-52.41,82.39,9.21,-1.02,0.09,4.94,0.01
2481863,498_1,1.7139,52.62,-28.79,3.04,27.54,-8.11,32.35,39.95,12.46,-27.9,-6.74,2.87,-0.37,30.78,12.68,-0.81,53.49,-6.1,-59.34,78.37,0.51,-12.06,3.17,4.87,0.06
2481864,498_1,1.7167,37.94,-20.41,2.53,24.67,2.3,23.59,20.45,22.41,-22.73,-4.27,1.04,-0.38,24.27,22.1,-2.0,40.34,-9.17,-62.83,71.39,-7.36,-21.1,5.63,4.74,0.11
2481865,498_1,1.7194,22.52,-14.65,2.02,22.78,6.62,9.17,-1.57,26.42,-18.43,-2.2,-0.91,-0.39,17.44,28.9,-2.78,27.3,-11.53,-62.79,62.08,-13.9,-27.63,7.35,4.55,0.15
2481866,498_1,1.7222,7.45,-10.94,1.58,21.09,5.27,-8.98,-24.06,26.83,-15.04,-0.49,-2.83,-0.39,10.76,32.75,-3.13,15.12,-13.05,-59.32,51.04,-18.73,-31.35,8.27,4.3,0.19
2481867,498_1,1.725,-6.31,-8.4,1.26,18.65,-0.86,-28.78,-45.31,26.24,-12.37,0.93,-4.6,-0.38,4.68,33.6,-3.04,4.22,-13.68,-52.63,38.73,-21.69,-32.23,8.4,3.97,0.23
2481868,498_1,1.7278,-18.0,-6.13,1.06,14.61,-10.62,-48.3,-64.06,26.86,-10.14,2.12,-6.11,-0.38,-0.47,31.64,-2.58,-5.31,-13.42,-43.03,25.41,-22.77,-30.44,7.79,3.55,0.26
2481869,498_1,1.7306,-27.11,-3.46,0.96,8.5,-22.72,-66.04,-79.49,30.06,-8.07,3.15,-7.26,-0.36,-4.44,27.28,-1.79,-13.64,-12.33,-30.92,11.23,-22.16,-26.39,6.57,3.03,0.28
2481870,498_1,1.7333,-33.32,-0.1,0.93,0.38,-35.79,-80.94,-91.2,36.19,-5.98,4.01,-8.01,-0.34,-7.03,21.12,-0.79,-21.08,-10.53,-16.89,-3.62,-20.15,-20.64,4.94,2.41,0.29
2481871,498_1,1.7361,-36.5,3.9,0.92,-9.16,-48.47,-92.27,-98.99,44.66,-3.85,4.66,-8.31,-0.31,-8.15,13.91,0.32,-27.77,-8.19,-1.8,-18.7,-17.1,-13.88,3.1,1.74,0.28
2481872,498_1,1.7389,-36.69,8.15,0.9,-19.07,-59.47,-99.52,-102.74,54.18,-1.73,5.02,-8.15,-0.27,-7.75,6.38,1.43,-33.59,-5.49,13.25,-33.19,-13.33,-6.79,1.28,1.04,0.25
2481873,498_1,1.7417,-34.01,12.16,0.86,-28.11,-67.62,-102.3,-102.36,63.12,0.21,5.01,-7.52,-0.22,-5.92,-0.77,2.43,-38.05,-2.66,26.95,-45.83,-9.12,-0.03,-0.3,0.37,0.19
2481874,498_1,1.7444,-28.7,15.44,0.79,-35.04,-72.05,-100.31,-97.77,69.96,1.83,4.58,-6.46,-0.16,-2.88,-6.96,3.23,-40.35,0.09,37.9,-55.11,-4.67,5.88,-1.5,-0.26,0.12
2481875,498_1,1.7472,-21.1,17.69,0.72,-38.94,-72.22,-93.36,-88.94,73.62,3.01,3.72,-5.0,-0.12,0.94,-11.76,3.74,-39.63,2.55,44.84,-59.54,-0.14,10.54,-2.19,-0.82,0.04
2481876,498_1,1.75,-11.66,18.88,0.68,-39.39,-68.04,-81.44,-76.01,73.74,3.71,2.49,-3.21,-0.09,4.85,-14.85,3.89,-35.31,4.55,46.88,-58.07,4.32,13.63,-2.35,-1.31,-0.04
2481877,498_1,1.7528,-0.93,19.26,0.69,-36.63,-59.86,-64.86,-59.37,70.77,4.01,1.01,-1.17,-0.07,7.93,-15.99,3.6,-27.42,5.94,43.67,-50.45,8.44,14.93,-2.02,-1.75,-0.11
2481878,498_1,1.7556,10.43,19.29,0.76,-31.5,-48.44,-44.33,-39.81,65.8,4.05,-0.55,0.99,-0.08,8.94,-14.97,2.78,-16.86,6.62,35.58,-37.55,11.85,14.22,-1.3,-2.2,-0.16
2481879,498_1,1.7583,21.6,19.5,0.89,-25.31,-34.86,-21.0,-18.53,60.31,4.01,-2.02,3.17,-0.1,6.48,-11.56,1.3,-5.52,6.58,23.69,-21.43,13.98,11.24,-0.37,-2.7,-0.17
2481880,498_1,1.7611,31.73,20.34,1.04,-19.47,-20.37,3.5,2.86,55.75,4.06,-3.21,5.21,-0.13,-1.01,-5.49,-0.98,3.85,5.9,9.73,-5.24,14.15,5.72,0.56,-3.35,-0.15
2481881,498_1,1.7639,39.92,22.01,1.18,-15.25,-6.25,27.2,22.5,53.15,4.31,-4.0,6.97,-0.17,-15.03,3.52,-4.25,7.94,4.75,-4.13,7.17,11.62,-2.63,1.26,-4.23,-0.08
2481882,498_1,1.7667,45.38,24.4,1.27,-13.45,6.35,47.93,38.47,52.81,4.79,-4.3,8.3,-0.2,-36.82,15.71,-8.66,3.4,3.38,-15.63,11.86,5.7,-14.07,1.49,-5.43,0.01
2481883,498_1,1.7694,47.52,27.09,1.27,-14.26,16.5,63.6,49.08,54.21,5.43,-4.11,9.09,-0.22,-67.17,31.21,-14.34,-12.55,2.07,-22.77,5.46,-4.07,-28.74,1.07,-7.01,0.12
2481884,498_1,1.7722,46.07,29.43,1.15,-17.18,23.55,72.47,53.11,56.13,6.08,-3.47,9.26,-0.22,,,,,,,,,,,,
2481885,498_1,1.775,41.15,30.68,0.92,-21.18,27.19,73.41,50.09,56.94,6.54,-2.5,8.8,-0.2,,,,,,,,,,,,
2481886,498_1,1.7778,33.27,30.18,0.59,-24.87,27.46,66.17,40.35,54.98,6.64,-1.38,7.75,-0.16,,,,,,,,,,,,
2481887,498_1,1.7806,23.32,27.51,0.2,-26.86,24.69,51.4,25.07,48.97,6.21,-0.26,6.25,-0.12,,,,,,,,,,,,
2481888,498_1,1.7833,12.42,22.57,-0.19,-26.02,19.52,30.68,6.07,38.37,5.19,0.69,4.45,-0.06,,,,,,,,,,,,
2481889,498_1,1.7861,1.74,15.66,-0.55,-21.83,12.8,6.26,-14.5,23.53,3.63,1.35,2.56,-0.01,,,,,,,,,,,,
2481890,498_1,1.7889,-7.64,7.43,-0.84,-14.47,5.51,-19.34,-34.52,5.72,1.67,1.67,0.78,0.04,,,,,,,,,,,,
2481891,498_1,1.7917,-14.96,-1.25,-1.04,-4.93,-1.33,-43.65,-52.27,-13.09,-0.45,1.66,-0.72,0.08,,,,,,,,,,,,
2481892,498_1,1.7944,-19.84,-9.39,-1.14,5.23,-6.75,-64.69,-66.67,-30.53,-2.47,1.39,-1.83,0.11,,,,,,,,,,,,
2481893,498_1,1.7972,-22.28,-16.08,-1.17,14.18,-9.97,-81.19,-77.37,-44.31,-4.11,0.99,-2.52,0.13,,,,,,,,,,,,
2481894,498_1,1.8,-22.61,-20.64,-1.14,20.15,-10.47,-92.69,-84.66,-52.58,-5.2,0.58,-2.82,0.15,,,,,,,,,,,,
2481895,498_1,1.8028,-21.4,-22.76,-1.07,21.89,-8.07,-99.42,-89.28,-54.27,-5.63,0.26,-2.79,0.16,,,,,,,,,,,,
2481896,498_1,1.8056,-19.26,-22.48,-0.98,18.82,-2.96,-102.17,-92.13,-49.3,-5.42,0.08,-2.55,0.16,,,,,,,,,,,,
2481897,498_1,1.8083,-16.75,-20.23,-0.9,11.29,4.25,-101.96,-94.0,-38.58,-4.72,0.07,-2.2,0.15,,,,,,,,,,,,
2481898,498_1,1.8111,-14.29,-16.71,-0.82,0.46,12.63,-99.82,-95.36,-23.89,-3.75,0.18,-1.83,0.15,,,,,,,,,,,,
2481899,498_1,1.8139,-12.08,-12.81,-0.75,-11.81,20.99,-96.57,-96.23,-7.67,-2.79,0.33,-1.49,0.13,,,,,,,,,,,,
2481900,498_1,1.8167,-10.16,-9.38,-0.7,-23.29,28.02,-92.73,-96.24,7.37,-2.12,0.43,-1.21,0.12,,,,,,,,,,,,
2481901,498_1,1.8194,-8.44,-7.2,-0.68,-31.68,32.51,-88.61,-94.81,18.57,-1.95,0.41,-0.99,0.12,,,,,,,,,,,,
2481902,498_1,1.8222,-6.79,-6.78,-0.7,-35.03,33.51,-84.34,-91.37,23.76,-2.43,0.19,-0.82,0.11,,,,,,,,,,,,
2481903,498_1,1.825,-5.14,-8.33,-0.76,-32.02,30.5,-80.09,-85.61,21.47,-3.59,-0.21,-0.69,0.12,,,,,,,,,,,,
2481904,498_1,1.8278,-3.5,-11.75,-0.87,-22.12,23.47,-76.13,-77.63,11.2,-5.36,-0.77,-0.62,0.14,,,,,,,,,,,,
2481905,498_1,1.8306,-2.02,-16.66,-1.03,-5.72,12.96,-72.84,-68.01,-6.62,-7.59,-1.42,-0.62,0.17,,,,,,,,,,,,
2481906,498_1,1.8333,-0.9,-22.51,-1.19,16.01,-0.05,-70.7,-57.7,-30.63,-10.09,-2.06,-0.7,0.2,,,,,,,,,,,,
2481907,498_1,1.8361,-0.37,-28.65,-1.32,41.27,-14.27,-70.12,-47.85,-58.77,-12.65,-2.6,-0.88,0.22,,,,,,,,,,,,
2481908,498_1,1.8389,-0.61,-34.45,-1.38,67.86,-28.3,-71.38,-39.61,-88.54,-15.1,-2.97,-1.16,0.22,,,,,,,,,,,,
2481909,498_1,1.8417,-1.71,-39.38,-1.3,93.45,-40.79,-74.48,-33.89,-117.26,-17.28,-3.13,-1.53,0.19,,,,,,,,,,,,
2481910,498_1,1.8444,-3.59,-43.03,-1.05,115.85,-50.61,-79.08,-31.23,-142.4,-19.07,-3.07,-1.95,0.12,,,,,,,,,,,,
2481911,498_1,1.8472,-6.05,-45.18,-0.63,133.22,-56.95,-84.56,-31.69,-161.77,-20.41,-2.81,-2.37,0.02,-212.42,41.42,21.84,135.95,-96.11,-160.43,216.12,-70.12,-38.13,40.67,1.67,0.23
2481912,498_1,1.85,-8.81,-45.75,-0.06,144.24,-59.44,-90.07,-34.86,-173.79,-21.26,-2.43,-2.74,-0.1,-147.07,44.19,13.53,100.81,-77.36,-135.17,170.3,-57.67,-40.68,35.4,6.13,0.05
2481913,498_1,1.8528,-11.49,-44.81,0.6,148.23,-58.12,-94.64,-39.91,-177.59,-21.58,-1.98,-2.99,-0.24,-87.3,46.0,5.28,68.74,-58.77,-111.0,127.73,-44.92,-42.21,30.3,9.96,-0.12
2481914,498_1,1.8556,-13.79,-42.55,1.27,145.17,-53.38,-97.37,-45.75,-173.08,-21.39,-1.56,-3.09,-0.38,-37.46,46.43,-2.58,42.05,-41.23,-89.16,91.06,-32.37,-42.3,25.54,12.67,-0.28
2481915,498_1,1.8583,-15.46,-39.26,1.85,135.67,-45.91,-97.58,-51.27,-160.94,-20.7,-1.24,-3.01,-0.49,-0.78,44.94,-9.72,22.19,-25.31,-70.17,61.84,-20.34,-40.44,21.18,13.86,-0.42
2481916,498_1,1.8611,-16.38,-35.28,2.24,120.85,-36.6,-94.92,-55.47,-142.49,-19.59,-1.07,-2.77,-0.57,21.09,40.96,-15.83,9.71,-11.25,-53.88,40.43,-9.04,-36.13,17.11,13.25,-0.53
2481917,498_1,1.8639,-16.61,-31.02,2.38,102.24,-26.36,-89.45,-57.7,-119.52,-18.17,-1.11,-2.39,-0.59,28.38,34.11,-20.61,4.45,0.85,-39.85,26.43,1.35,-29.12,13.13,10.8,-0.62
2481918,498_1,1.8667,-16.29,-26.86,2.23,81.55,-16.09,-81.62,-57.66,-94.12,-16.56,-1.36,-1.91,-0.55,23.21,24.35,-23.82,5.69,10.84,-27.67,19.04,10.54,-19.51,8.96,6.78,-0.67
2481919,498_1,1.8694,-15.66,-23.12,1.81,60.52,-6.58,-72.19,-55.49,-68.4,-14.91,-1.81,-1.4,-0.46,9.22,12.08,-25.27,12.4,18.38,-17.26,17.39,18.06,-7.87,4.35,1.72,-0.68
2481920,498_1,1.8722,-14.98,-20.08,1.16,40.78,1.58,-62.07,-51.62,-44.33,-13.37,-2.41,-0.92,-0.33,-9.01,-1.82,-24.81,23.24,22.99,-8.81,20.58,23.32,4.83,-0.89,-3.6,-0.65
2481921,498_1,1.875,-14.46,-17.88,0.36,23.65,7.95,-52.19,-46.72,-23.52,-12.07,-3.09,-0.5,-0.17,-26.89,-16.17,-22.45,36.52,24.2,-2.64,27.49,25.7,17.35,-6.79,-8.39,-0.57
2481922,498_1,1.8778,-14.25,-16.59,-0.5,10.08,12.29,-43.4,-41.47,-7.12,-11.1,-3.79,-0.18,0.01,-40.65,-29.64,-18.31,50.23,21.71,1.15,36.6,24.8,28.41,-13.23,-11.98,-0.45
2481923,498_1,1.8806,-14.43,-16.17,-1.33,0.59,14.56,-36.28,-36.52,4.22,-10.53,-4.42,0.03,0.17,-48.06,-41.0,-12.78,62.1,15.73,2.92,45.89,20.65,36.97,-19.84,-14.02,-0.31
2481924,498_1,1.8833,-14.96,-16.54,-2.02,-4.7,14.83,-31.21,-32.35,10.38,-10.38,-4.93,0.1,0.31,-48.7,-49.43,-6.46,69.88,7.1,3.62,52.93,13.89,42.47,-26.07,-14.54,-0.15
2481925,498_1,1.8861,-15.78,-17.57,-2.53,-6.06,13.38,-28.28,-29.26,11.67,-10.67,-5.28,0.06,0.42,-43.9,-54.6,-0.18,71.73,-2.67,4.68,55.25,5.82,44.98,-31.23,-13.92,0.0
2481926,498_1,1.8889,-16.79,-19.11,-2.82,-4.04,10.61,-27.42,-27.41,8.78,-11.36,-5.44,-0.1,0.48,-36.13,-56.78,5.14,66.62,-11.67,7.72,50.88,-1.82,45.16,-34.58,-12.8,0.13
2481927,498_1,1.8917,-17.91,-21.03,-2.9,0.66,7.02,-28.42,-26.84,2.6,-12.4,-5.45,-0.36,0.5,-28.3,-56.64,8.66,54.6,-18.02,14.03,38.87,-7.29,43.99,-35.56,-11.9,0.22
2481928,498_1,1.8944,-19.09,-23.19,-2.78,7.32,3.2,-31.03,-27.57,-5.92,-13.75,-5.32,-0.71,0.48,-22.95,-54.94,9.79,36.85,-20.4,24.06,19.73,-9.33,42.46,-33.85,-11.79,0.27
2481929,498_1,1.8972,-20.31,-25.5,-2.51,15.33,-0.26,-35.04,-29.64,-15.92,-15.35,-5.12,-1.13,0.43,-21.61,-52.21,8.39,15.53,-18.44,37.09,-4.53,-7.65,41.15,-29.58,-12.8,0.27
2481930,498_1,1.9,-21.59,-27.89,-2.15,24.32,-2.81,-40.36,-33.17,-26.79,-17.15,-4.9,-1.61,0.35,-24.49,-48.66,4.8,-6.52,-12.87,51.22,-30.55,-3.0,40.12,-23.27,-14.85,0.24
2481931,498_1,1.9028,-22.98,-30.34,-1.76,34.16,-4.03,-47.0,-38.37,-38.22,-19.11,-4.73,-2.13,0.27,-30.49,-44.17,-0.24,-26.22,-5.19,63.76,-54.25,3.05,38.92,-15.77,-17.56,0.19
2481932,498_1,1.9056,-24.54,-32.88,-1.4,45.0,-3.66,-55.07,-45.49,-50.22,-21.22,-4.66,-2.66,0.17,-37.49,-38.58,-5.71,-40.67,2.78,71.87,-71.54,8.65,36.92,-8.06,-20.26,0.13
2481933,498_1,1.9083,-26.28,-35.51,-1.11,57.11,-1.63,-64.67,-54.72,-62.97,-23.48,-4.71,-3.18,0.09,-42.93,-31.83,-10.55,-47.67,9.52,73.25,-79.14,12.2,33.55,-1.06,-22.21,0.09
2481934,498_1,1.9111,-28.2,-38.27,-0.91,70.72,1.9,-75.8,-66.04,-76.72,-25.87,-4.89,-3.67,0.02,-44.44,-24.08,-13.9,-46.09,14.06,66.66,-75.32,12.76,28.49,4.6,-22.73,0.06
2481935,498_1,1.9139,-30.2,-41.08,-0.82,85.81,6.56,-88.16,-79.12,-91.49,-28.31,-5.18,-4.1,-0.04,-40.36,-15.62,-15.23,-36.17,16.13,52.18,-60.17,10.16,21.73,8.64,-21.39,0.05
2481936,498_1,1.9167,-32.14,-43.81,-0.83,101.9,11.78,-101.06,-93.12,-106.93,-30.7,-5.52,-4.46,-0.08,-30.14,-6.77,-14.45,-19.44,15.98,31.07,-35.6,4.88,13.49,11.1,-18.07,0.07
2481937,498_1,1.9194,-33.79,-46.21,-0.89,117.96,16.86,-113.35,-106.69,-122.15,-32.84,-5.83,-4.73,-0.11,-14.39,2.22,-11.86,1.55,14.15,5.54,-4.87,-2.19,4.13,12.3,-12.97,0.09
2481938,498_1,1.9222,-34.9,-47.95,-0.97,132.39,21.0,-123.52,-118.05,-135.76,-34.49,-6.04,-4.92,-0.12,5.25,11.13,-8.06,23.75,11.27,-21.67,28.0,-9.98,-5.84,12.64,-6.63,0.12
2481939,498_1,1.925,-35.19,-48.66,-1.03,143.24,23.43,-129.82,-125.2,-145.98,-35.39,-6.08,-5.01,-0.13,26.44,19.75,-3.84,44.09,7.86,-47.71,58.93,-17.48,-15.81,12.54,0.23,0.13
2481940,498_1,1.9278,-34.43,-48.01,-1.02,148.52,23.51,-130.61,-126.23,-151.01,-35.29,-5.91,-5.0,-0.13,46.64,27.83,0.04,59.95,4.32,-69.99,84.33,-23.84,-25.16,12.29,6.8,0.13
2481941,498_1,1.9306,-32.47,-45.79,-0.93,146.55,20.85,-124.69,-119.74,-149.32,-34.03,-5.51,-4.89,-0.14,63.53,35.14,2.99,69.47,0.81,-86.5,101.53,-28.52,-33.37,12.11,12.36,0.09
2481942,498_1,1.9333,-29.27,-41.94,-0.76,136.46,15.44,-111.61,-105.22,-140.09,-31.55,-4.92,-4.67,-0.15,75.39,41.53,4.64,71.63,-2.67,-96.11,109.04,-31.32,-40.1,12.13,16.34,0.03
2481943,498_1,1.9361,-24.99,-36.62,-0.53,118.38,7.69,-91.91,-83.29,-123.41,-27.96,-4.18,-4.34,-0.16,81.31,47.0,4.93,66.4,-6.28,-98.63,106.64,-32.38,-45.29,12.43,18.41,-0.05
2481944,498_1,1.9389,-19.94,-30.24,-0.29,93.66,-1.63,-67.13,-55.71,-100.49,-23.51,-3.37,-3.93,-0.16,81.16,51.59,4.06,54.58,-10.18,-94.71,95.28,-32.06,-49.07,13.01,18.51,-0.15
2481945,498_1,1.9417,-14.57,-23.36,-0.08,64.65,-11.43,-39.68,-25.25,-73.47,-18.58,-2.59,-3.45,-0.16,75.48,55.29,2.46,37.74,-14.41,-85.61,76.84,-30.84,-51.59,13.82,16.81,-0.24
2481946,498_1,1.9444,-9.43,-16.64,0.06,34.45,-20.58,-12.45,4.8,-45.17,-13.64,-1.91,-2.92,-0.14,65.24,57.8,0.61,17.98,-18.79,-72.73,53.76,-29.12,-52.84,14.71,13.63,-0.32
2481947,498_1,1.9472,-5.05,-10.77,0.1,6.32,-28.0,11.67,31.11,-18.58,-9.16,-1.4,-2.38,-0.11,51.61,58.52,-0.95,-2.43,-22.9,-57.37,28.58,-27.13,-52.51,15.36,9.41,-0.37
2481948,498_1,1.95,-1.9,-6.28,0.05,-16.81,-32.88,30.21,50.9,3.6,-5.53,-1.11,-1.87,-0.06,35.79,56.55,-1.77,-21.31,-26.17,-40.41,3.6,-24.92,-50.04,15.38,4.59,-0.39
2481949,498_1,1.9528,-0.28,-3.48,-0.09,-32.93,-34.75,41.57,62.36,19.49,-3.01,-1.03,-1.42,0.0,18.93,50.97,-1.56,-36.85,-28.03,-22.4,-19.42,-22.39,-44.72,14.34,-0.41,-0.38
2481950,498_1,1.9556,-0.28,-2.4,-0.28,-41.19,-33.5,45.23,64.88,28.3,-1.64,-1.14,-1.07,0.06,2.11,41.07,-0.16,-47.81,-28.04,-3.64,-39.26,-19.4,-36.03,11.88,-5.24,-0.34
2481951,498_1,1.9583,-1.77,-2.78,-0.48,-42.0,-29.35,41.75,59.06,30.36,-1.3,-1.37,-0.84,0.12,-13.59,26.72,2.37,-53.58,-26.03,15.54,-55.21,-15.9,-23.84,7.83,-9.6,-0.28
2481952,498_1,1.9611,-4.44,-4.16,-0.67,-36.81,-22.78,32.53,46.5,26.99,-1.73,-1.67,-0.75,0.17,-27.16,8.53,5.79,-54.27,-22.17,34.58,-66.99,-11.95,-8.61,2.24,-13.24,-0.22
2481953,498_1,1.9639,-7.81,-5.99,-0.79,-27.73,-14.48,19.58,29.45,20.09,-2.59,-1.94,-0.79,0.2,-37.74,-12.0,9.7,-50.58,-16.98,52.59,-74.65,-7.83,8.47,-4.5,-15.95,-0.16
2481954,498_1,1.9667,-11.4,-7.77,-0.84,-17.02,-5.22,4.99,10.35,11.69,-3.55,-2.14,-0.95,0.22,-44.65,-32.67,13.61,-43.77,-11.28,68.3,-78.45,-3.95,25.62,-11.79,-17.58,-0.11
2481955,498_1,1.9694,-14.69,-9.11,-0.8,-6.67,4.19,-9.28,-8.5,3.54,-4.36,-2.23,-1.19,0.21,-47.62,-50.86,16.98,-35.39,-6.0,80.31,-78.78,-0.84,40.69,-18.77,-18.01,-0.07
2481956,498_1,1.9722,-17.29,-9.84,-0.68,1.9,13.0,-21.78,-25.27,-3.15,-4.9,-2.2,-1.45,0.17,-46.75,-63.99,19.33,-26.97,-2.0,87.18,-76.05,1.09,51.55,-24.53,-17.25,-0.03
2481957,498_2,0.0,,,,,,,,,,,,,,,,,,,,,,,,
2481958,498_2,0.0028,-92.11,137.96,3.31,-313.83,42.51,15.61,-168.19,231.03,137.43,20.14,-14.35,-0.04,-118.1,227.08,-10.44,-291.75,178.03,-53.78,-60.24,-257.26,-223.4,55.0,-30.94,-3.07
2481959,498_2,0.0056,-71.54,104.17,2.94,-240.39,31.51,13.24,-129.02,177.61,103.78,15.05,-11.4,-0.08,-92.02,174.3,-7.74,-221.73,137.74,-40.94,-44.09,-196.16,-171.52,42.28,-24.14,-2.31
2481960,498_2,0.0083,-52.03,72.21,2.58,-170.66,21.05,10.77,-91.93,126.73,71.96,10.25,-8.58,-0.11,-67.2,124.27,-5.2,-155.6,99.32,-28.67,-29.12,-138.24,-122.34,30.2,-17.66,-1.59
2481961,498_2,0.0111,-34.68,43.94,2.23,-108.6,11.74,8.25,-59.05,81.22,43.8,6.02,-6.05,-0.13,-45.01,79.84,-2.95,-97.2,64.9,-17.64,-16.3,-86.82,-78.66,19.46,-11.85,-0.95
2481962,498_2,0.0139,-20.29,20.66,1.89,-56.94,4.0,5.75,-31.83,43.06,20.63,2.57,-3.92,-0.14,-26.41,42.98,-1.11,-49.17,35.98,-8.37,-6.23,-44.23,-42.43,10.52,-6.97,-0.41
2481963,498_2,0.0167,-9.21,3.03,1.57,-17.02,-1.91,3.3,-10.94,13.22,3.08,0.0,-2.23,-0.15,-11.86,14.6,0.3,-12.73,13.32,-1.15,0.86,-11.59,-14.53,3.61,-3.14,-0.01
2481964,498_2,0.0194,-1.43,-8.96,1.25,11.19,-5.92,0.96,3.7,-8.25,-8.86,-1.69,-0.98,-0.14,-1.33,-5.4,1.26,12.32,-3.03,3.94,5.18,11.14,5.13,-1.29,-0.37,0.28
2481965,498_2,0.0222,3.37,-15.86,0.94,28.81,-8.17,-1.18,12.76,-22.08,-15.72,-2.59,-0.14,-0.12,5.57,-17.88,1.84,27.25,-13.58,6.99,7.19,24.91,17.4,-4.38,1.42,0.45
2481966,498_2,0.025,5.73,-18.55,0.63,37.65,-8.87,-3.03,17.29,-29.45,-18.41,-2.84,0.37,-0.09,9.48,-24.23,2.11,34.03,-19.23,8.27,7.55,31.3,23.65,-5.99,2.41,0.54
2481967,498_2,0.0278,6.27,-18.13,0.32,39.84,-8.35,-4.48,18.5,-31.8,-18.0,-2.63,0.61,-0.05,11.13,-26.06,2.16,34.92,-21.07,8.1,6.94,32.17,25.46,-6.52,2.78,0.56
2481968,498_2,0.0306,5.64,-15.65,0.02,37.49,-6.93,-5.47,17.55,-30.56,-15.55,-2.12,0.66,-0.01,11.26,-24.94,2.07,32.15,-20.24,6.88,5.96,29.42,24.37,-6.32,2.73,0.53
2481969,498_2,0.0333,4.36,-12.09,-0.26,32.47,-4.98,-5.96,15.44,-27.06,-12.03,-1.48,0.6,0.03,10.47,-22.25,1.91,27.63,-17.8,5.01,5.09,24.74,21.74,-5.73,2.41,0.49
2481970,498_2,0.0361,2.89,-8.19,-0.51,26.26,-2.79,-5.99,12.89,-22.38,-8.17,-0.82,0.48,0.07,9.24,-19.05,1.72,22.81,-14.63,2.89,4.59,19.52,18.61,-4.99,1.95,0.43
2481971,498_2,0.0389,1.51,-4.51,-0.71,19.94,-0.64,-5.65,10.38,-17.38,-4.53,-0.24,0.34,0.11,7.88,-16.03,1.51,18.65,-11.39,0.84,4.55,14.73,15.67,-4.26,1.45,0.38
2481972,498_2,0.0417,0.39,-1.38,-0.84,14.21,1.23,-5.07,8.17,-12.66,-1.43,0.22,0.22,0.13,6.57,-13.56,1.3,15.58,-8.52,-0.87,4.91,10.93,13.27,-3.63,0.97,0.32
2481973,498_2,0.0444,-0.39,1.01,-0.9,9.42,2.68,-4.36,6.33,-8.59,0.95,0.54,0.12,0.14,5.39,-11.66,1.06,13.67,-6.18,-2.05,5.53,8.34,11.44,-3.1,0.54,0.26
2481974,498_2,0.0472,-0.87,2.62,-0.88,5.71,3.62,-3.62,4.84,-5.36,2.55,0.72,0.06,0.14,4.37,-10.2,0.8,12.67,-4.37,-2.63,6.25,6.86,10.05,-2.64,0.17,0.2
2481975,498_2,0.05,-1.09,3.46,-0.78,3.04,4.02,-2.9,3.66,-2.98,3.41,0.75,0.03,0.12,3.49,-8.89,0.5,12.2,-2.94,-2.62,6.92,6.21,8.81,-2.19,-0.12,0.13
2481976,498_2,0.0528,-1.13,3.61,-0.62,1.32,3.95,-2.19,2.74,-1.36,3.58,0.66,0.04,0.09,2.76,-7.5,0.17,11.85,-1.68,-2.11,7.41,6.03,7.48,-1.7,-0.35,0.06
2481977,498_2,0.0556,-1.07,3.16,-0.4,0.37,3.5,-1.45,2.07,-0.34,3.17,0.46,0.06,0.06,2.15,-5.82,-0.17,11.29,-0.42,-1.25,7.67,5.97,5.88,-1.16,-0.5,-0.01
2481978,498_2,0.0583,-0.96,2.26,-0.17,0.05,2.83,-0.63,1.67,0.24,2.31,0.18,0.09,0.02,1.63,-3.79,-0.51,10.31,0.93,-0.18,7.66,5.77,3.92,-0.57,-0.59,-0.08
2481979,498_2,0.0611,-0.82,1.03,0.05,0.22,2.1,0.3,1.57,0.55,1.12,-0.15,0.13,-0.01,1.15,-1.49,-0.8,8.83,2.36,0.94,7.36,5.28,1.68,0.05,-0.64,-0.14
2481980,498_2,0.0639,-0.66,-0.36,0.23,0.75,1.44,1.35,1.77,0.7,-0.24,-0.5,0.16,-0.03,0.66,0.96,-1.04,6.92,3.78,2.0,6.78,4.48,-0.71,0.64,-0.67,-0.19
2481981,498_2,0.0667,-0.46,-1.73,0.35,1.52,0.98,2.43,2.29,0.77,-1.6,-0.81,0.19,-0.05,0.09,3.34,-1.19,4.7,5.06,2.92,5.93,3.45,-3.05,1.16,-0.72,-0.22
2481982,498_2,0.0694,-0.21,-2.92,0.39,2.42,0.79,3.46,3.06,0.78,-2.79,-1.05,0.22,-0.05,-0.58,5.46,-1.25,2.39,6.05,3.66,4.86,2.32,-5.15,1.57,-0.79,-0.24
2481983,498_2,0.0722,0.11,-3.74,0.34,3.33,0.94,4.29,4.01,0.76,-3.63,-1.18,0.23,-0.04,-1.34,7.16,-1.23,0.2,6.68,4.22,3.68,1.23,-6.85,1.86,-0.91,-0.25
2481984,498_2,0.075,0.48,-4.05,0.21,4.11,1.45,4.8,5.04,0.7,-3.99,-1.15,0.24,-0.02,-2.13,8.33,-1.13,-1.65,6.9,4.58,2.5,0.34,-8.02,2.03,-1.05,-0.24
2481985,498_2,0.0778,0.86,-3.75,0.02,4.66,2.3,4.9,6.05,0.62,-3.76,-0.95,0.23,0.0,-2.89,8.91,-0.99,-2.97,6.75,4.77,1.47,-0.26,-8.62,2.07,-1.22,-0.22
2481986,498_2,0.0806,1.2,-2.81,-0.21,4.9,3.46,4.54,6.96,0.54,-2.91,-0.56,0.2,0.03,-3.51,8.91,-0.83,-3.64,6.31,4.78,0.71,-0.52,-8.63,2.02,-1.38,-0.2
2481987,498_2,0.0833,1.42,-1.29,-0.45,4.82,4.83,3.74,7.69,0.44,-1.48,-0.01,0.16,0.06,-3.93,8.36,-0.68,-3.63,5.65,4.62,0.31,-0.43,-8.11,1.9,-1.52,-0.18
2481988,498_2,0.0861,1.48,0.65,-0.67,4.47,6.31,2.55,8.22,0.32,0.37,0.67,0.1,0.07,-4.1,7.35,-0.54,-2.99,4.85,4.3,0.28,-0.04,-7.11,1.7,-1.61,-0.16
2481989,498_2,0.0889,1.34,2.81,-0.84,3.94,7.76,1.11,8.54,0.12,2.44,1.41,0.04,0.09,-4.02,5.95,-0.44,-1.83,3.96,3.82,0.57,0.57,-5.73,1.45,-1.64,-0.14
2481990,498_2,0.0917,0.98,4.97,-0.95,3.38,9.02,-0.49,8.65,-0.18,4.51,2.14,-0.02,0.09,-3.71,4.26,-0.36,-0.33,3.0,3.19,1.07,1.29,-4.07,1.14,-1.59,-0.13
2481991,498_2,0.0944,0.45,6.92,-1.0,2.88,9.99,-2.1,8.58,-0.63,6.4,2.82,-0.07,0.08,-3.2,2.36,-0.29,1.37,2.0,2.45,1.69,2.05,-2.21,0.76,-1.44,-0.11
2481992,498_2,0.0972,-0.18,8.54,-0.99,2.5,10.61,-3.62,8.36,-1.19,7.96,3.39,-0.12,0.07,-2.51,0.34,-0.22,3.11,0.98,1.6,2.35,2.76,-0.26,0.32,-1.21,-0.08
2481993,498_2,0.1,-0.85,9.77,-0.96,2.22,10.88,-4.97,7.99,-1.81,9.15,3.81,-0.18,0.07,-1.66,-1.69,-0.14,4.82,0.02,0.69,3.03,3.37,1.7,-0.16,-0.89,-0.05
2481994,498_2,0.1028,-1.46,10.62,-0.9,1.98,10.86,-6.06,7.48,-2.36,9.97,4.08,-0.24,0.06,-0.7,-3.62,-0.05,6.45,-0.75,-0.27,3.8,3.84,3.53,-0.65,-0.51,-0.02
2481995,498_2,0.1056,-1.93,11.12,-0.83,1.66,10.6,-6.83,6.84,-2.71,10.46,4.18,-0.32,0.06,0.32,-5.3,0.05,7.96,-1.18,-1.23,4.74,4.11,5.12,-1.11,-0.08,0.02
2481996,498_2,0.1083,-2.23,11.24,-0.75,1.2,10.14,-7.18,6.09,-2.76,10.6,4.07,-0.43,0.06,1.32,-6.58,0.15,9.32,-1.09,-2.16,5.92,4.14,6.31,-1.47,0.33,0.05
2481997,498_2,0.1111,-2.32,10.9,-0.65,0.63,9.46,-7.04,5.24,-2.45,10.32,3.73,-0.57,0.06,2.16,-7.28,0.24,10.44,-0.4,-2.99,7.34,3.89,6.96,-1.69,0.68,0.08
2481998,498_2,0.1139,-2.21,9.95,-0.52,0.07,8.52,-6.34,4.36,-1.85,9.49,3.13,-0.72,0.06,2.7,-7.3,0.3,11.19,0.89,-3.66,8.91,3.35,6.97,-1.72,0.92,0.1
2481999,498_2,0.1167,-1.92,8.23,-0.33,-0.25,7.24,-5.06,3.55,-1.11,7.96,2.25,-0.89,0.05,2.81,-6.59,0.31,11.41,2.65,-4.1,10.4,2.53,6.3,-1.56,1.0,0.1
2482000,498_2,0.1194,-1.48,5.62,-0.09,-0.1,5.55,-3.23,2.89,-0.44,5.61,1.11,-1.06,0.04,2.41,-5.22,0.28,10.98,4.6,-4.24,11.53,1.51,5.01,-1.23,0.91,0.09
2482001,498_2,0.1222,-0.98,2.16,0.21,0.7,3.46,-0.99,2.46,-0.04,2.47,-0.24,-1.22,0.01,1.51,-3.33,0.21,9.83,6.41,-4.05,12.0,0.37,3.24,-0.79,0.68,0.06
2482002,498_2,0.125,-0.5,-1.92,0.55,2.15,1.07,1.44,2.28,-0.02,-1.25,-1.67,-1.35,-0.02,0.21,-1.17,0.1,7.96,7.76,-3.54,11.6,-0.77,1.23,-0.32,0.33,0.02
2482003,498_2,0.1278,-0.16,-6.15,0.9,4.01,-1.43,3.77,2.26,-0.39,-5.13,-3.03,-1.47,-0.06,-1.34,0.98,-0.03,5.51,8.39,-2.78,10.24,-1.79,-0.77,0.1,-0.06,-0.02
2482004,498_2,0.1306,-0.09,-9.91,1.21,5.84,-3.75,5.69,2.27,-0.97,-8.6,-4.11,-1.56,-0.1,-2.9,2.86,-0.16,2.69,8.17,-1.86,7.98,-2.61,-2.54,0.4,-0.42,-0.06
2482005,498_2,0.1333,-0.41,-12.53,1.46,7.09,-5.58,6.93,2.1,-1.49,-11.05,-4.76,-1.65,-0.13,-4.27,4.27,-0.28,-0.23,7.14,-0.9,5.08,-3.17,-3.87,0.54,-0.69,-0.09
2482006,498_2,0.1361,-1.19,-13.49,1.59,7.25,-6.65,7.32,1.59,-1.65,-12.0,-4.85,-1.74,-0.16,-5.24,5.09,-0.36,-2.94,5.47,-0.03,1.88,-3.45,-4.67,0.51,-0.83,-0.1
2482007,498_2,0.1389,-2.4,-12.5,1.61,5.99,-6.78,6.82,0.66,-1.2,-11.18,-4.35,-1.83,-0.16,-5.69,5.29,-0.4,-5.13,3.44,0.67,-1.2,-3.43,-4.89,0.33,-0.83,-0.1
2482008,498_2,0.1417,-3.93,-9.64,1.52,3.31,-5.91,5.57,-0.61,-0.03,-8.65,-3.33,-1.91,-0.15,-5.58,4.9,-0.4,-6.52,1.35,1.18,-3.74,-3.09,-4.59,0.06,-0.69,-0.08
2482009,498_2,0.1444,-5.58,-5.29,1.33,-0.45,-4.13,3.8,-2.02,1.76,-4.76,-1.92,-1.95,-0.14,-4.95,4.02,-0.35,-6.92,-0.54,1.5,-5.44,-2.4,-3.83,-0.26,-0.45,-0.05
2482010,498_2,0.1472,-7.11,-0.12,1.07,-4.69,-1.63,1.81,-3.28,3.94,-0.1,-0.35,-1.94,-0.11,-3.89,2.76,-0.27,-6.24,-2.05,1.68,-6.1,-1.35,-2.72,-0.55,-0.14,-0.02
2482011,498_2,0.15,-8.28,5.11,0.8,-8.69,1.29,-0.09,-4.06,6.14,4.62,1.18,-1.85,-0.08,-2.58,1.25,-0.18,-4.52,-3.09,1.78,-5.69,0.07,-1.37,-0.8,0.18,0.02
2482012,498_2,0.1528,-8.91,9.67,0.53,-11.71,4.32,-1.66,-4.09,7.95,8.75,2.48,-1.67,-0.05,-1.17,-0.41,-0.07,-1.91,-3.66,1.84,-4.34,1.78,0.13,-0.97,0.48,0.05
2482013,498_2,0.1556,-8.9,12.97,0.3,-13.21,7.15,-2.76,-3.22,9.01,11.75,3.41,-1.4,-0.03,0.16,-2.13,0.03,1.28,-3.82,1.85,-2.29,3.65,1.67,-1.09,0.71,0.07
2482014,498_2,0.1583,-8.22,14.67,0.11,-12.85,9.53,-3.32,-1.43,9.08,13.31,3.92,-1.04,-0.01,1.26,-3.78,0.12,4.71,-3.66,1.81,0.16,5.49,3.17,-1.17,0.87,0.09
2482015,498_2,0.1611,-6.94,14.63,-0.02,-10.63,11.22,-3.38,1.12,8.05,13.3,3.98,-0.6,0.01,2.03,-5.29,0.21,7.97,-3.28,1.66,2.68,7.08,4.52,-1.23,0.93,0.1
2482016,498_2,0.1639,-5.18,12.91,-0.12,-6.77,12.05,-3.02,4.11,5.97,11.79,3.64,-0.1,0.01,2.41,-6.52,0.29,10.69,-2.73,1.37,4.99,8.21,5.62,-1.3,0.89,0.11
2482017,498_2,0.1667,-3.08,9.73,-0.2,-1.74,11.89,-2.33,7.15,3.03,8.96,2.94,0.43,0.02,2.35,-7.35,0.37,12.59,-2.04,0.94,6.85,8.71,6.36,-1.35,0.74,0.12
2482018,498_2,0.1694,-0.83,5.44,-0.25,3.86,10.67,-1.42,9.79,-0.43,5.14,1.96,0.96,0.03,1.88,-7.65,0.44,13.47,-1.23,0.42,8.14,8.51,6.62,-1.36,0.5,0.12
2482019,498_2,0.1722,1.37,0.49,-0.3,9.33,8.46,-0.37,11.64,-4.03,0.72,0.79,1.47,0.04,1.05,-7.34,0.49,13.31,-0.29,-0.1,8.82,7.68,6.34,-1.3,0.16,0.11
2482020,498_2,0.175,3.35,-4.58,-0.32,14.0,5.45,0.69,12.4,-7.31,-3.8,-0.47,1.92,0.04,-0.05,-6.37,0.53,12.2,0.75,-0.5,8.91,6.37,5.49,-1.13,-0.22,0.1
2482021,498_2,0.1778,4.91,-9.12,-0.33,17.26,1.99,1.64,11.96,-9.88,-7.86,-1.67,2.29,0.04,-1.27,-4.82,0.53,10.39,1.82,-0.65,8.51,4.81,4.14,-0.83,-0.62,0.08
2482022,498_2,0.1805,5.88,-12.5,-0.3,18.69,-1.45,2.32,10.38,-11.4,-10.89,-2.66,2.53,0.02,-2.45,-2.85,0.48,8.19,2.8,-0.47,7.72,3.31,2.45,-0.43,-0.98,0.06
2482023,498_2,0.1833,6.14,-14.16,-0.24,18.08,-4.34,2.59,7.92,-11.68,-12.41,-3.27,2.6,0.0,-3.42,-0.71,0.36,5.97,3.55,0.08,6.7,2.15,0.64,0.05,-1.23,0.02
