trials_id,session_x,trial,session_trial,time,session_type,tag_x,pitch_type,ball_weight,drill_tag,style_tag,fitlines,misc_tag,fs_point,time_point,handedness,needs_review,bad_datas_point,bad_v3d_qa,processed,v7_match,created_x,updated_x,filename,iz_trackman_pitch_id,pulse_event_id,session_only,user,session_y,date,level,lab,tag_y,height_meters,mass_kilograms,trial_count,good_files,bad_files,unused_files,report_files,created_y,updated_y,irb,comp_scores,drill_scores,video_report
1,1,1,1_1,,,,,,,,,,360,"{""0"": [0.0, 0.00278, 0.00556, 0.00833, 0.01111, 0.01389, 0.01667, 0.01944, 0.02222, 0.025, 0.02778, 0.03056, 0.03333, 0.03611, 0.03889, 0.04167, 0.04444, 0.04722, 0.05, 0.05278, 0.05556, 0.05833, 0.06111, 0.06389, 0.06667, 0.06944, 0.07222, 0.075, 0.07778, 0.08056, 0.08333, 0.08611, 0.08889, 0.09167, 0.09444, 0.09722, 0.1, 0.10278, 0.10556, 0.10833, 0.11111, 0.11389, 0.11667, 0.11944, 0.12222, 0.125, 0.12778, 0.13056, 0.13333, 0.13611, 0.13889, 0.14167, 0.14444, 0.14722, 0.15, 0.15278, 0.15556, 0.15833, 0.16111, 0.16389, 0.16667, 0.16944, 0.17222, 0.175, 0.17778, 0.18056, 0.18333, 0.18611, 0.18889, 0.19167, 0.19444, 0.19722, 0.2, 0.20278, 0.20556, 0.20833, 0.21111, 0.21389, 0.21667, 0.21944, 0.22222, 0.225, 0.22778, 0.23056, 0.23333, 0.23611, 0.23889, 0.24167, 0.24444, 0.24722, 0.25, 0.25278, 0.25556, 0.25833, 0.26111, 0.26389, 0.26667, 0.26944, 0.27222, 0.275, 0.27778, 0.28056, 0.28333, 0.28611, 0.28889, 0.29167, 0.29444, 0.29722, 0.3, 0.30278, 0.30556, 0.30833, 0.31111, 0.31389, 0.31667, 0.31944, 0.32222, 0.325, 0.32778, 0.33056, 0.33333, 0.33611, 0.33889, 0.34167, 0.34444, 0.34722, 0.35, 0.35278, 0.35556, 0.35833, 0.36111, 0.36389, 0.36667, 0.36944, 0.37222, 0.375, 0.37778, 0.38056, 0.38333, 0.38611, 0.38889, 0.39167, 0.39444, 0.39722, 0.4, 0.40278, 0.40556, 0.40833, 0.41111, 0.41389, 0.41667, 0.41944, 0.42222, 0.425, 0.42778, 0.43056, 0.43333, 0.43611, 0.43889, 0.44167, 0.44444, 0.44722, 0.45, 0.45278, 0.45556, 0.45833, 0.46111, 0.46389, 0.46667, 0.46944, 0.47222, 0.475, 0.47778, 0.48056, 0.48333, 0.48611, 0.48889, 0.49167, 0.49444, 0.49722, 0.5, 0.50278, 0.50556, 0.50833, 0.51111, 0.51389, 0.51667, 0.51944, 0.52222, 0.525, 0.52778, 0.53056, 0.53333, 0.53611, 0.53889, 0.54167, 0.54444, 0.54722, 0.55, 0.55278, 0.55556, 0.55833, 0.56111, 0.56389, 0.56667, 0.56944, 0.57222, 0.575, 0.57778, 0.58056, 0.58333, 0.58611, 0.58889, 0.59167, 0.59444, 0.59722, 0.6, 0.60278, 0.60556, 0.60833, 0.61111, 0.61389, 0.61667, 0.61944, 0.62222, 0.625, 0.62778, 0.63056, 0.63333, 0.63611, 0.63889, 0.64167, 0.64444, 0.64722, 0.65, 0.65278, 0.65556, 0.65833, 0.66111, 0.66389, 0.66667, 0.66944, 0.67222, 0.675, 0.67778, 0.68056, 0.68333, 0.68611, 0.68889, 0.69167, 0.69444, 0.69722, 0.7, 0.70278, 0.70556, 0.70833, 0.71111, 0.71389, 0.71667, 0.71944, 0.72222, 0.725, 0.72778, 0.73056, 0.73333, 0.73611, 0.73889, 0.74167, 0.74444, 0.74722, 0.75, 0.75278, 0.75556, 0.75833, 0.76111, 0.76389, 0.76667, 0.76944, 0.77222, 0.775, 0.77778, 0.78056, 0.78333, 0.78611, 0.78889, 0.79167, 0.79444, 0.79722, 0.8, 0.80278, 0.80556, 0.80833, 0.81111, 0.81389, 0.81667, 0.81944, 0.82222, 0.825, 0.82778, 0.83056, 0.83333, 0.83611, 0.83889, 0.84167, 0.84444, 0.84722, 0.85, 0.85278, 0.85556, 0.85833, 0.86111, 0.86389, 0.86667, 0.86944, 0.87222, 0.875, 0.87778, 0.88056, 0.88333, 0.88611, 0.88889, 0.89167, 0.89444, 0.89722, 0.9, 0.90278, 0.90556, 0.90833, 0.91111, 0.91389, 0.91667, 0.91944, 0.92222, 0.925, 0.92778, 0.93056, 0.93333, 0.93611, 0.93889, 0.94167, 0.94444, 0.94722, 0.95, 0.95278, 0.95556, 0.95833, 0.96111, 0.96389, 0.96667, 0.96944, 0.97222, 0.975, 0.97778, 0.98056, 0.98333, 0.98611, 0.98889, 0.99167, 0.99444, 0.99722, 1.0, 1.00278, 1.00556, 1.00833, 1.01111, 1.01389, 1.01667, 1.01944, 1.02222, 1.025, 1.02778, 1.03056, 1.03333, 1.03611, 1.03889, 1.04167, 1.04444, 1.04722, 1.05, 1.05278, 1.05556, 1.05833, 1.06111, 1.06389, 1.06667, 1.06944, 1.07222, 1.075, 1.07778, 1.08056, 1.08333, 1.08611, 1.08889, 1.09167, 1.09444, 1.09722, 1.1, 1.10278, 1.10556, 1.10833, 1.11111, 1.11389, 1.11667, 1.11944, 1.12222, 1.125, 1.12778, 1.13056, 1.13333, 1.13611, 1.13889, 1.14167, 1.14444, 1.14722, 1.15, 1.15278, 1.15556, 1.15833, 1.16111, 1.16389, 1.16667, 1.16944, 1.17222, 1.175, 1.17778, 1.18056, 1.18333, 1.18611, 1.18889, 1.19167, 1.19444, 1.19722, 1.2, 1.20278, 1.20556, 1.20833, 1.21111, 1.21389, 1.21667, 1.21944, 1.22222, 1.225, 1.22778, 1.23056, 1.23333, 1.23611, 1.23889, 1.24167, 1.24444, 1.24722, 1.25, 1.25278, 1.25556, 1.25833, 1.26111, 1.26389, 1.26667, 1.26944, 1.27222, 1.275, 1.27778, 1.28056, 1.28333, 1.28611, 1.28889, 1.29167, 1.29444, 1.29722, 1.3, 1.30278, 1.30556, 1.30833, 1.31111, 1.31389, 1.31667, 1.31944, 1.32222, 1.325, 1.32778, 1.33056, 1.33333, 1.33611, 1.33889, 1.34167, 1.34444, 1.34722, 1.35, 1.35278, 1.35556, 1.35833, 1.36111, 1.36389, 1.36667, 1.36944, 1.37222, 1.375, 1.37778, 1.38056, 1.38333, 1.38611, 1.38889, 1.39167, 1.39444, 1.39722, 1.4, 1.40278, 1.40556, 1.40833, 1.41111, 1.41389, 1.41667, 1.41944, 1.42222, 1.425, 1.42778, 1.43056, 1.43333, 1.43611, 1.43889, 1.44167, 1.44444, 1.44722, 1.45, 1.45278, 1.45556, 1.45833, 1.46111, 1.46389, 1.46667, 1.46944, 1.47222, 1.475, 1.47778, 1.48056, 1.48333, 1.48611, 1.48889, 1.49167, 1.49444, 1.49722, 1.5, 1.50278, 1.50556, 1.50833, 1.51111, 1.51389, 1.51667, 1.51944, 1.52222, 1.525, 1.52778, 1.53056, 1.53333, 1.53611, 1.53889, 1.54167, 1.54444, 1.54722, 1.55, 1.55278, 1.55556, 1.55833, 1.56111, 1.56389, 1.56667, 1.56944, 1.57222, 1.575, 1.57778, 1.58056, 1.58333, 1.58611, 1.58889, 1.59167, 1.59444, 1.59722, 1.6, 1.60278, 1.60556, 1.60833, 1.61111, 1.61389, 1.61667, 1.61944, 1.62222, 1.625, 1.62778, 1.63056, 1.63333, 1.63611, 1.63889, 1.64167, 1.64444, 1.64722, 1.65, 1.65278, 1.65556, 1.65833, 1.66111, 1.66389, 1.66667, 1.66944, 1.67222, 1.675, 1.67778, 1.68056, 1.68333, 1.68611, 1.68889, 1.69167, 1.69444, 1.69722, 1.7, 1.70278, 1.70556, 1.70833, 1.71111, 1.71389, 1.71667, 1.71944, 1.72222, 1.725, 1.72778, 1.73056, 1.73333, 1.73611, 1.73889, 1.74167, 1.74444, 1.74722, 1.75, 1.75278, 1.75556, 1.75833, 1.76111, 1.76389, 1.76667, 1.76944, 1.77222, 1.775, 1.77778, 1.78056, 1.78333, 1.78611, 1.78889, 1.79167, 1.79444, 1.79722, 1.8, 1.80278, 1.80556, 1.80833, 1.81111, 1.81389, 1.81667, 1.81944, 1.82222, 1.825, 1.82778, 1.83056, 1.83333, 1.83611, 1.83889, 1.84167, 1.84444, 1.84722, 1.85, 1.85278, 1.85556, 1.85833, 1.86111, 1.86389, 1.86667, 1.86944, 1.87222, 1.875, 1.87778, 1.88056, 1.88333, 1.88611, 1.88889, 1.89167, 1.89444, 1.89722, 1.9, 1.90278, 1.90556, 1.90833, 1.91111, 1.91389, 1.91667, 1.91944, 1.92222, 1.925, 1.92778, 1.93056, 1.93333, 1.93611, 1.93889, 1.94167, 1.94444, 1.94722, 1.95, 1.95278, 1.95556, 1.95833, 1.96111, 1.96389, 1.96667, 1.96944, 1.97222, 1.975, 1.97778, 1.98056, 1.98333, 1.98611, 1.98889, 1.99167, 1.99444, 1.99722, 2.0, 2.00278, 2.00556, 2.00833, 2.01111, 2.01389, 2.01667, 2.01944, 2.02222, 2.025, 2.02778, 2.03056]}",R,0,0,0,1,0,2024-02-20 15:06:33,2024-05-10 10:31:51,20230131_095714_yudarvish_77_218_001_FF_863.json,,,1,1,1,2023-01-31,mlb,DL - Kent,,1.96,98.88,6,"['1_1', '1_2', '1_4', '1_5', '1_6']",[],,yabin marshed,2024-02-20 15:06:31,2024-05-10 10:31:51,,1.0,1,1
2,1,2,1_2,,,,,,,,,,360,"{""0"": [0.0, 0.00278, 0.00556, 0.00833, 0.01111, 0.01389, 0.01667, 0.01944, 0.02222, 0.025, 0.02778, 0.03056, 0.03333, 0.03611, 0.03889, 0.04167, 0.04444, 0.04722, 0.05, 0.05278, 0.05556, 0.05833, 0.06111, 0.06389, 0.06667, 0.06944, 0.07222, 0.075, 0.07778, 0.08056, 0.08333, 0.08611, 0.08889, 0.09167, 0.09444, 0.09722, 0.1, 0.10278, 0.10556, 0.10833, 0.11111, 0.11389, 0.11667, 0.11944, 0.12222, 0.125, 0.12778, 0.13056, 0.13333, 0.13611, 0.13889, 0.14167, 0.14444, 0.14722, 0.15, 0.15278, 0.15556, 0.15833, 0.16111, 0.16389, 0.16667, 0.16944, 0.17222, 0.175, 0.17778, 0.18056, 0.18333, 0.18611, 0.18889, 0.19167, 0.19444, 0.19722, 0.2, 0.20278, 0.20556, 0.20833, 0.21111, 0.21389, 0.21667, 0.21944, 0.22222, 0.225, 0.22778, 0.23056, 0.23333, 0.23611, 0.23889, 0.24167, 0.24444, 0.24722, 0.25, 0.25278, 0.25556, 0.25833, 0.26111, 0.26389, 0.26667, 0.26944, 0.27222, 0.275, 0.27778, 0.28056, 0.28333, 0.28611, 0.28889, 0.29167, 0.29444, 0.29722, 0.3, 0.30278, 0.30556, 0.30833, 0.31111, 0.31389, 0.31667, 0.31944, 0.32222, 0.325, 0.32778, 0.33056, 0.33333, 0.33611, 0.33889, 0.34167, 0.34444, 0.34722, 0.35, 0.35278, 0.35556, 0.35833, 0.36111, 0.36389, 0.36667, 0.36944, 0.37222, 0.375, 0.37778, 0.38056, 0.38333, 0.38611, 0.38889, 0.39167, 0.39444, 0.39722, 0.4, 0.40278, 0.40556, 0.40833, 0.41111, 0.41389, 0.41667, 0.41944, 0.42222, 0.425, 0.42778, 0.43056, 0.43333, 0.43611, 0.43889, 0.44167, 0.44444, 0.44722, 0.45, 0.45278, 0.45556, 0.45833, 0.46111, 0.46389, 0.46667, 0.46944, 0.47222, 0.475, 0.47778, 0.48056, 0.48333, 0.48611, 0.48889, 0.49167, 0.49444, 0.49722, 0.5, 0.50278, 0.50556, 0.50833, 0.51111, 0.51389, 0.51667, 0.51944, 0.52222, 0.525, 0.52778, 0.53056, 0.53333, 0.53611, 0.53889, 0.54167, 0.54444, 0.54722, 0.55, 0.55278, 0.55556, 0.55833, 0.56111, 0.56389, 0.56667, 0.56944, 0.57222, 0.575, 0.57778, 0.58056, 0.58333, 0.58611, 0.58889, 0.59167, 0.59444, 0.59722, 0.6, 0.60278, 0.60556, 0.60833, 0.61111, 0.61389, 0.61667, 0.61944, 0.62222, 0.625, 0.62778, 0.63056, 0.63333, 0.63611, 0.63889, 0.64167, 0.64444, 0.64722, 0.65, 0.65278, 0.65556, 0.65833, 0.66111, 0.66389, 0.66667, 0.66944, 0.67222, 0.675, 0.67778, 0.68056, 0.68333, 0.68611, 0.68889, 0.69167, 0.69444, 0.69722, 0.7, 0.70278, 0.70556, 0.70833, 0.71111, 0.71389, 0.71667, 0.71944, 0.72222, 0.725, 0.72778, 0.73056, 0.73333, 0.73611, 0.73889, 0.74167, 0.74444, 0.74722, 0.75, 0.75278, 0.75556, 0.75833, 0.76111, 0.76389, 0.76667, 0.76944, 0.77222, 0.775, 0.77778, 0.78056, 0.78333, 0.78611, 0.78889, 0.79167, 0.79444, 0.79722, 0.8, 0.80278, 0.80556, 0.80833, 0.81111, 0.81389, 0.81667, 0.81944, 0.82222, 0.825, 0.82778, 0.83056, 0.83333, 0.83611, 0.83889, 0.84167, 0.84444, 0.84722, 0.85, 0.85278, 0.85556, 0.85833, 0.86111, 0.86389, 0.86667, 0.86944, 0.87222, 0.875, 0.87778, 0.88056, 0.88333, 0.88611, 0.88889, 0.89167, 0.89444, 0.89722, 0.9, 0.90278, 0.90556, 0.90833, 0.91111, 0.91389, 0.91667, 0.91944, 0.92222, 0.925, 0.92778, 0.93056, 0.93333, 0.93611, 0.93889, 0.94167, 0.94444, 0.94722, 0.95, 0.95278, 0.95556, 0.95833, 0.96111, 0.96389, 0.96667, 0.96944, 0.97222, 0.975, 0.97778, 0.98056, 0.98333, 0.98611, 0.98889, 0.99167, 0.99444, 0.99722, 1.0, 1.00278, 1.00556, 1.00833, 1.01111, 1.01389, 1.01667, 1.01944, 1.02222, 1.025, 1.02778, 1.03056, 1.03333, 1.03611, 1.03889, 1.04167, 1.04444, 1.04722, 1.05, 1.05278, 1.05556, 1.05833, 1.06111, 1.06389, 1.06667, 1.06944, 1.07222, 1.075, 1.07778, 1.08056, 1.08333, 1.08611, 1.08889, 1.09167, 1.09444, 1.09722, 1.1, 1.10278, 1.10556, 1.10833, 1.11111, 1.11389, 1.11667, 1.11944, 1.12222, 1.125, 1.12778, 1.13056, 1.13333, 1.13611, 1.13889, 1.14167, 1.14444, 1.14722, 1.15, 1.15278, 1.15556, 1.15833, 1.16111, 1.16389, 1.16667, 1.16944, 1.17222, 1.175, 1.17778, 1.18056, 1.18333, 1.18611, 1.18889, 1.19167, 1.19444, 1.19722, 1.2, 1.20278, 1.20556, 1.20833, 1.21111, 1.21389, 1.21667, 1.21944, 1.22222, 1.225, 1.22778, 1.23056, 1.23333, 1.23611, 1.23889, 1.24167, 1.24444, 1.24722, 1.25, 1.25278, 1.25556, 1.25833, 1.26111, 1.26389, 1.26667, 1.26944, 1.27222, 1.275, 1.27778, 1.28056, 1.28333, 1.28611, 1.28889, 1.29167, 1.29444, 1.29722, 1.3, 1.30278, 1.30556, 1.30833, 1.31111, 1.31389, 1.31667, 1.31944, 1.32222, 1.325, 1.32778, 1.33056, 1.33333, 1.33611, 1.33889, 1.34167, 1.34444, 1.34722, 1.35, 1.35278, 1.35556, 1.35833, 1.36111, 1.36389, 1.36667, 1.36944, 1.37222, 1.375, 1.37778, 1.38056, 1.38333, 1.38611, 1.38889, 1.39167, 1.39444, 1.39722, 1.4, 1.40278, 1.40556, 1.40833, 1.41111, 1.41389, 1.41667, 1.41944, 1.42222, 1.425, 1.42778, 1.43056, 1.43333, 1.43611, 1.43889, 1.44167, 1.44444, 1.44722, 1.45, 1.45278, 1.45556, 1.45833, 1.46111, 1.46389, 1.46667, 1.46944, 1.47222, 1.475, 1.47778, 1.48056, 1.48333, 1.48611, 1.48889, 1.49167, 1.49444, 1.49722, 1.5, 1.50278, 1.50556, 1.50833, 1.51111, 1.51389, 1.51667, 1.51944, 1.52222, 1.525, 1.52778, 1.53056, 1.53333, 1.53611, 1.53889, 1.54167, 1.54444, 1.54722, 1.55, 1.55278, 1.55556, 1.55833, 1.56111, 1.56389, 1.56667, 1.56944, 1.57222, 1.575, 1.57778, 1.58056, 1.58333, 1.58611, 1.58889, 1.59167, 1.59444, 1.59722, 1.6, 1.60278, 1.60556, 1.60833, 1.61111, 1.61389, 1.61667, 1.61944, 1.62222, 1.625, 1.62778, 1.63056, 1.63333, 1.63611, 1.63889, 1.64167, 1.64444, 1.64722, 1.65, 1.65278, 1.65556, 1.65833, 1.66111, 1.66389, 1.66667, 1.66944, 1.67222, 1.675, 1.67778, 1.68056, 1.68333, 1.68611, 1.68889, 1.69167, 1.69444, 1.69722, 1.7, 1.70278, 1.70556, 1.70833, 1.71111, 1.71389, 1.71667, 1.71944, 1.72222, 1.725, 1.72778, 1.73056, 1.73333, 1.73611, 1.73889, 1.74167, 1.74444, 1.74722, 1.75, 1.75278, 1.75556, 1.75833, 1.76111, 1.76389, 1.76667, 1.76944, 1.77222, 1.775, 1.77778, 1.78056, 1.78333, 1.78611, 1.78889, 1.79167, 1.79444, 1.79722, 1.8, 1.80278, 1.80556, 1.80833, 1.81111, 1.81389, 1.81667, 1.81944, 1.82222, 1.825, 1.82778, 1.83056, 1.83333, 1.83611, 1.83889, 1.84167, 1.84444, 1.84722, 1.85, 1.85278, 1.85556, 1.85833, 1.86111, 1.86389, 1.86667, 1.86944, 1.87222, 1.875, 1.87778, 1.88056, 1.88333, 1.88611, 1.88889, 1.89167, 1.89444, 1.89722, 1.9, 1.90278, 1.90556, 1.90833, 1.91111, 1.91389, 1.91667, 1.91944, 1.92222, 1.925, 1.92778, 1.93056, 1.93333, 1.93611, 1.93889, 1.94167, 1.94444, 1.94722, 1.95, 1.95278, 1.95556, 1.95833, 1.96111, 1.96389, 1.96667, 1.96944, 1.97222, 1.975, 1.97778, 1.98056, 1.98333, 1.98611, 1.98889, 1.99167, 1.99444, 1.99722, 2.0, 2.00278, 2.00556, 2.00833, 2.01111, 2.01389, 2.01667, 2.01944, 2.02222, 2.025, 2.02778, 2.03056, 2.03333, 2.03611, 2.03889, 2.04167, 2.04444, 2.04722, 2.05, 2.05278, 2.05556, 2.05833, 2.06111, 2.06389, 2.06667, 2.06944]}",R,0,0,0,1,1,2024-02-20 15:06:33,2024-05-10 10:31:51,20230131_095714_yudarvish_77_218_002_FF_875.json,,,1,1,1,2023-01-31,mlb,DL - Kent,,1.96,98.88,6,"['1_1', '1_2', '1_4', '1_5', '1_6']",[],,yabin marshed,2024-02-20 15:06:31,2024-05-10 10:31:51,,1.0,1,1
3,1,3,1_3,,,,,,,,,,360,,,0,0,1,0,0,2024-02-20 15:06:33,2024-02-20 15:06:33,20230131_095714_yudarvish_77_218_003_FF_871.json,,,1,1,1,2023-01-31,mlb,DL - Kent,,1.96,98.88,6,"['1_1', '1_2', '1_4', '1_5', '1_6']",[],,yabin marshed,2024-02-20 15:06:31,2024-05-10 10:31:51,,1.0,1,1
4,1,4,1_4,,,,,,,,,,360,"{""0"": [0.0, 0.00278, 0.00556, 0.00833, 0.01111, 0.01389, 0.01667, 0.01944, 0.02222, 0.025, 0.02778, 0.03056, 0.03333, 0.03611, 0.03889, 0.04167, 0.04444, 0.04722, 0.05, 0.05278, 0.05556, 0.05833, 0.06111, 0.06389, 0.06667, 0.06944, 0.07222, 0.075, 0.07778, 0.08056, 0.08333, 0.08611, 0.08889, 0.09167, 0.09444, 0.09722, 0.1, 0.10278, 0.10556, 0.10833, 0.11111, 0.11389, 0.11667, 0.11944, 0.12222, 0.125, 0.12778, 0.13056, 0.13333, 0.13611, 0.13889, 0.14167, 0.14444, 0.14722, 0.15, 0.15278, 0.15556, 0.15833, 0.16111, 0.16389, 0.16667, 0.16944, 0.17222, 0.175, 0.17778, 0.18056, 0.18333, 0.18611, 0.18889, 0.19167, 0.19444, 0.19722, 0.2, 0.20278, 0.20556, 0.20833, 0.21111, 0.21389, 0.21667, 0.21944, 0.22222, 0.225, 0.22778, 0.23056, 0.23333, 0.23611, 0.23889, 0.24167, 0.24444, 0.24722, 0.25, 0.25278, 0.25556, 0.25833, 0.26111, 0.26389, 0.26667, 0.26944, 0.27222, 0.275, 0.27778, 0.28056, 0.28333, 0.28611, 0.28889, 0.29167, 0.29444, 0.29722, 0.3, 0.30278, 0.30556, 0.30833, 0.31111, 0.31389, 0.31667, 0.31944, 0.32222, 0.325, 0.32778, 0.33056, 0.33333, 0.33611, 0.33889, 0.34167, 0.34444, 0.34722, 0.35, 0.35278, 0.35556, 0.35833, 0.36111, 0.36389, 0.36667, 0.36944, 0.37222, 0.375, 0.37778, 0.38056, 0.38333, 0.38611, 0.38889, 0.39167, 0.39444, 0.39722, 0.4, 0.40278, 0.40556, 0.40833, 0.41111, 0.41389, 0.41667, 0.41944, 0.42222, 0.425, 0.42778, 0.43056, 0.43333, 0.43611, 0.43889, 0.44167, 0.44444, 0.44722, 0.45, 0.45278, 0.45556, 0.45833, 0.46111, 0.46389, 0.46667, 0.46944, 0.47222, 0.475, 0.47778, 0.48056, 0.48333, 0.48611, 0.48889, 0.49167, 0.49444, 0.49722, 0.5, 0.50278, 0.50556, 0.50833, 0.51111, 0.51389, 0.51667, 0.51944, 0.52222, 0.525, 0.52778, 0.53056, 0.53333, 0.53611, 0.53889, 0.54167, 0.54444, 0.54722, 0.55, 0.55278, 0.55556, 0.55833, 0.56111, 0.56389, 0.56667, 0.56944, 0.57222, 0.575, 0.57778, 0.58056, 0.58333, 0.58611, 0.58889, 0.59167, 0.59444, 0.59722, 0.6, 0.60278, 0.60556, 0.60833, 0.61111, 0.61389, 0.61667, 0.61944, 0.62222, 0.625, 0.62778, 0.63056, 0.63333, 0.63611, 0.63889, 0.64167, 0.64444, 0.64722, 0.65, 0.65278, 0.65556, 0.65833, 0.66111, 0.66389, 0.66667, 0.66944, 0.67222, 0.675, 0.67778, 0.68056, 0.68333, 0.68611, 0.68889, 0.69167, 0.69444, 0.69722, 0.7, 0.70278, 0.70556, 0.70833, 0.71111, 0.71389, 0.71667, 0.71944, 0.72222, 0.725, 0.72778, 0.73056, 0.73333, 0.73611, 0.73889, 0.74167, 0.74444, 0.74722, 0.75, 0.75278, 0.75556, 0.75833, 0.76111, 0.76389, 0.76667, 0.76944, 0.77222, 0.775, 0.77778, 0.78056, 0.78333, 0.78611, 0.78889, 0.79167, 0.79444, 0.79722, 0.8, 0.80278, 0.80556, 0.80833, 0.81111, 0.81389, 0.81667, 0.81944, 0.82222, 0.825, 0.82778, 0.83056, 0.83333, 0.83611, 0.83889, 0.84167, 0.84444, 0.84722, 0.85, 0.85278, 0.85556, 0.85833, 0.86111, 0.86389, 0.86667, 0.86944, 0.87222, 0.875, 0.87778, 0.88056, 0.88333, 0.88611, 0.88889, 0.89167, 0.89444, 0.89722, 0.9, 0.90278, 0.90556, 0.90833, 0.91111, 0.91389, 0.91667, 0.91944, 0.92222, 0.925, 0.92778, 0.93056, 0.93333, 0.93611, 0.93889, 0.94167, 0.94444, 0.94722, 0.95, 0.95278, 0.95556, 0.95833, 0.96111, 0.96389, 0.96667, 0.96944, 0.97222, 0.975, 0.97778, 0.98056, 0.98333, 0.98611, 0.98889, 0.99167, 0.99444, 0.99722, 1.0, 1.00278, 1.00556, 1.00833, 1.01111, 1.01389, 1.01667, 1.01944, 1.02222, 1.025, 1.02778, 1.03056, 1.03333, 1.03611, 1.03889, 1.04167, 1.04444, 1.04722, 1.05, 1.05278, 1.05556, 1.05833, 1.06111, 1.06389, 1.06667, 1.06944, 1.07222, 1.075, 1.07778, 1.08056, 1.08333, 1.08611, 1.08889, 1.09167, 1.09444, 1.09722, 1.1, 1.10278, 1.10556, 1.10833, 1.11111, 1.11389, 1.11667, 1.11944, 1.12222, 1.125, 1.12778, 1.13056, 1.13333, 1.13611, 1.13889, 1.14167, 1.14444, 1.14722, 1.15, 1.15278, 1.15556, 1.15833, 1.16111, 1.16389, 1.16667, 1.16944, 1.17222, 1.175, 1.17778, 1.18056, 1.18333, 1.18611, 1.18889, 1.19167, 1.19444, 1.19722, 1.2, 1.20278, 1.20556, 1.20833, 1.21111, 1.21389, 1.21667, 1.21944, 1.22222, 1.225, 1.22778, 1.23056, 1.23333, 1.23611, 1.23889, 1.24167, 1.24444, 1.24722, 1.25, 1.25278, 1.25556, 1.25833, 1.26111, 1.26389, 1.26667, 1.26944, 1.27222, 1.275, 1.27778, 1.28056, 1.28333, 1.28611, 1.28889, 1.29167, 1.29444, 1.29722, 1.3, 1.30278, 1.30556, 1.30833, 1.31111, 1.31389, 1.31667, 1.31944, 1.32222, 1.325, 1.32778, 1.33056, 1.33333, 1.33611, 1.33889, 1.34167, 1.34444, 1.34722, 1.35, 1.35278, 1.35556, 1.35833, 1.36111, 1.36389, 1.36667, 1.36944, 1.37222, 1.375, 1.37778, 1.38056, 1.38333, 1.38611, 1.38889, 1.39167, 1.39444, 1.39722, 1.4, 1.40278, 1.40556, 1.40833, 1.41111, 1.41389, 1.41667, 1.41944, 1.42222, 1.425, 1.42778, 1.43056, 1.43333, 1.43611, 1.43889, 1.44167, 1.44444, 1.44722, 1.45, 1.45278, 1.45556, 1.45833, 1.46111, 1.46389, 1.46667, 1.46944, 1.47222, 1.475, 1.47778, 1.48056, 1.48333, 1.48611, 1.48889, 1.49167, 1.49444, 1.49722, 1.5, 1.50278, 1.50556, 1.50833, 1.51111, 1.51389, 1.51667, 1.51944, 1.52222, 1.525, 1.52778, 1.53056, 1.53333, 1.53611, 1.53889, 1.54167, 1.54444, 1.54722, 1.55, 1.55278, 1.55556, 1.55833, 1.56111, 1.56389, 1.56667, 1.56944, 1.57222, 1.575, 1.57778, 1.58056, 1.58333, 1.58611, 1.58889, 1.59167, 1.59444, 1.59722, 1.6, 1.60278, 1.60556, 1.60833, 1.61111, 1.61389, 1.61667, 1.61944, 1.62222, 1.625, 1.62778, 1.63056, 1.63333, 1.63611, 1.63889, 1.64167, 1.64444, 1.64722, 1.65, 1.65278, 1.65556, 1.65833, 1.66111, 1.66389, 1.66667, 1.66944, 1.67222, 1.675, 1.67778, 1.68056, 1.68333, 1.68611, 1.68889, 1.69167, 1.69444, 1.69722, 1.7, 1.70278, 1.70556, 1.70833, 1.71111, 1.71389, 1.71667, 1.71944, 1.72222, 1.725, 1.72778, 1.73056, 1.73333, 1.73611, 1.73889, 1.74167, 1.74444, 1.74722, 1.75, 1.75278, 1.75556, 1.75833, 1.76111, 1.76389, 1.76667, 1.76944, 1.77222, 1.775, 1.77778, 1.78056, 1.78333, 1.78611, 1.78889, 1.79167, 1.79444, 1.79722, 1.8, 1.80278, 1.80556, 1.80833, 1.81111, 1.81389, 1.81667, 1.81944, 1.82222, 1.825, 1.82778, 1.83056, 1.83333, 1.83611, 1.83889, 1.84167, 1.84444, 1.84722, 1.85, 1.85278, 1.85556, 1.85833, 1.86111, 1.86389, 1.86667, 1.86944, 1.87222, 1.875, 1.87778, 1.88056, 1.88333, 1.88611, 1.88889, 1.89167, 1.89444, 1.89722, 1.9, 1.90278, 1.90556, 1.90833, 1.91111, 1.91389, 1.91667, 1.91944, 1.92222, 1.925, 1.92778, 1.93056, 1.93333, 1.93611, 1.93889, 1.94167, 1.94444, 1.94722, 1.95, 1.95278, 1.95556, 1.95833, 1.96111, 1.96389, 1.96667, 1.96944, 1.97222, 1.975, 1.97778, 1.98056, 1.98333, 1.98611, 1.98889, 1.99167, 1.99444, 1.99722, 2.0, 2.00278, 2.00556, 2.00833, 2.01111, 2.01389, 2.01667, 2.01944, 2.02222, 2.025, 2.02778, 2.03056]}",R,0,0,0,1,1,2024-02-20 15:06:33,2024-05-10 10:31:51,20230131_095714_yudarvish_77_218_004_FF_888.json,,,1,1,1,2023-01-31,mlb,DL - Kent,,1.96,98.88,6,"['1_1', '1_2', '1_4', '1_5', '1_6']",[],,yabin marshed,2024-02-20 15:06:31,2024-05-10 10:31:51,,1.0,1,1
5,1,5,1_5,,,,,,,,,,360,"{""0"": [0.0, 0.00278, 0.00556, 0.00833, 0.01111, 0.01389, 0.01667, 0.01944, 0.02222, 0.025, 0.02778, 0.03056, 0.03333, 0.03611, 0.03889, 0.04167, 0.04444, 0.04722, 0.05, 0.05278, 0.05556, 0.05833, 0.06111, 0.06389, 0.06667, 0.06944, 0.07222, 0.075, 0.07778, 0.08056, 0.08333, 0.08611, 0.08889, 0.09167, 0.09444, 0.09722, 0.1, 0.10278, 0.10556, 0.10833, 0.11111, 0.11389, 0.11667, 0.11944, 0.12222, 0.125, 0.12778, 0.13056, 0.13333, 0.13611, 0.13889, 0.14167, 0.14444, 0.14722, 0.15, 0.15278, 0.15556, 0.15833, 0.16111, 0.16389, 0.16667, 0.16944, 0.17222, 0.175, 0.17778, 0.18056, 0.18333, 0.18611, 0.18889, 0.19167, 0.19444, 0.19722, 0.2, 0.20278, 0.20556, 0.20833, 0.21111, 0.21389, 0.21667, 0.21944, 0.22222, 0.225, 0.22778, 0.23056, 0.23333, 0.23611, 0.23889, 0.24167, 0.24444, 0.24722, 0.25, 0.25278, 0.25556, 0.25833, 0.26111, 0.26389, 0.26667, 0.26944, 0.27222, 0.275, 0.27778, 0.28056, 0.28333, 0.28611, 0.28889, 0.29167, 0.29444, 0.29722, 0.3, 0.30278, 0.30556, 0.30833, 0.31111, 0.31389, 0.31667, 0.31944, 0.32222, 0.325, 0.32778, 0.33056, 0.33333, 0.33611, 0.33889, 0.34167, 0.34444, 0.34722, 0.35, 0.35278, 0.35556, 0.35833, 0.36111, 0.36389, 0.36667, 0.36944, 0.37222, 0.375, 0.37778, 0.38056, 0.38333, 0.38611, 0.38889, 0.39167, 0.39444, 0.39722, 0.4, 0.40278, 0.40556, 0.40833, 0.41111, 0.41389, 0.41667, 0.41944, 0.42222, 0.425, 0.42778, 0.43056, 0.43333, 0.43611, 0.43889, 0.44167, 0.44444, 0.44722, 0.45, 0.45278, 0.45556, 0.45833, 0.46111, 0.46389, 0.46667, 0.46944, 0.47222, 0.475, 0.47778, 0.48056, 0.48333, 0.48611, 0.48889, 0.49167, 0.49444, 0.49722, 0.5, 0.50278, 0.50556, 0.50833, 0.51111, 0.51389, 0.51667, 0.51944, 0.52222, 0.525, 0.52778, 0.53056, 0.53333, 0.53611, 0.53889, 0.54167, 0.54444, 0.54722, 0.55, 0.55278, 0.55556, 0.55833, 0.56111, 0.56389, 0.56667, 0.56944, 0.57222, 0.575, 0.57778, 0.58056, 0.58333, 0.58611, 0.58889, 0.59167, 0.59444, 0.59722, 0.6, 0.60278, 0.60556, 0.60833, 0.61111, 0.61389, 0.61667, 0.61944, 0.62222, 0.625, 0.62778, 0.63056, 0.63333, 0.63611, 0.63889, 0.64167, 0.64444, 0.64722, 0.65, 0.65278, 0.65556, 0.65833, 0.66111, 0.66389, 0.66667, 0.66944, 0.67222, 0.675, 0.67778, 0.68056, 0.68333, 0.68611, 0.68889, 0.69167, 0.69444, 0.69722, 0.7, 0.70278, 0.70556, 0.70833, 0.71111, 0.71389, 0.71667, 0.71944, 0.72222, 0.725, 0.72778, 0.73056, 0.73333, 0.73611, 0.73889, 0.74167, 0.74444, 0.74722, 0.75, 0.75278, 0.75556, 0.75833, 0.76111, 0.76389, 0.76667, 0.76944, 0.77222, 0.775, 0.77778, 0.78056, 0.78333, 0.78611, 0.78889, 0.79167, 0.79444, 0.79722, 0.8, 0.80278, 0.80556, 0.80833, 0.81111, 0.81389, 0.81667, 0.81944, 0.82222, 0.825, 0.82778, 0.83056, 0.83333, 0.83611, 0.83889, 0.84167, 0.84444, 0.84722, 0.85, 0.85278, 0.85556, 0.85833, 0.86111, 0.86389, 0.86667, 0.86944, 0.87222, 0.875, 0.87778, 0.88056, 0.88333, 0.88611, 0.88889, 0.89167, 0.89444, 0.89722, 0.9, 0.90278, 0.90556, 0.90833, 0.91111, 0.91389, 0.91667, 0.91944, 0.92222, 0.925, 0.92778, 0.93056, 0.93333, 0.93611, 0.93889, 0.94167, 0.94444, 0.94722, 0.95, 0.95278, 0.95556, 0.95833, 0.96111, 0.96389, 0.96667, 0.96944, 0.97222, 0.975, 0.97778, 0.98056, 0.98333, 0.98611, 0.98889, 0.99167, 0.99444, 0.99722, 1.0, 1.00278, 1.00556, 1.00833, 1.01111, 1.01389, 1.01667, 1.01944, 1.02222, 1.025, 1.02778, 1.03056, 1.03333, 1.03611, 1.03889, 1.04167, 1.04444, 1.04722, 1.05, 1.05278, 1.05556, 1.05833, 1.06111, 1.06389, 1.06667, 1.06944, 1.07222, 1.075, 1.07778, 1.08056, 1.08333, 1.08611, 1.08889, 1.09167, 1.09444, 1.09722, 1.1, 1.10278, 1.10556, 1.10833, 1.11111, 1.11389, 1.11667, 1.11944, 1.12222, 1.125, 1.12778, 1.13056, 1.13333, 1.13611, 1.13889, 1.14167, 1.14444, 1.14722, 1.15, 1.15278, 1.15556, 1.15833, 1.16111, 1.16389, 1.16667, 1.16944, 1.17222, 1.175, 1.17778, 1.18056, 1.18333, 1.18611, 1.18889, 1.19167, 1.19444, 1.19722, 1.2, 1.20278, 1.20556, 1.20833, 1.21111, 1.21389, 1.21667, 1.21944, 1.22222, 1.225, 1.22778, 1.23056, 1.23333, 1.23611, 1.23889, 1.24167, 1.24444, 1.24722, 1.25, 1.25278, 1.25556, 1.25833, 1.26111, 1.26389, 1.26667, 1.26944, 1.27222, 1.275, 1.27778, 1.28056, 1.28333, 1.28611, 1.28889, 1.29167, 1.29444, 1.29722, 1.3, 1.30278, 1.30556, 1.30833, 1.31111, 1.31389, 1.31667, 1.31944, 1.32222, 1.325, 1.32778, 1.33056, 1.33333, 1.33611, 1.33889, 1.34167, 1.34444, 1.34722, 1.35, 1.35278, 1.35556, 1.35833, 1.36111, 1.36389, 1.36667, 1.36944, 1.37222, 1.375, 1.37778, 1.38056, 1.38333, 1.38611, 1.38889, 1.39167, 1.39444, 1.39722, 1.4, 1.40278, 1.40556, 1.40833, 1.41111, 1.41389, 1.41667, 1.41944, 1.42222, 1.425, 1.42778, 1.43056, 1.43333, 1.43611, 1.43889, 1.44167, 1.44444, 1.44722, 1.45, 1.45278, 1.45556, 1.45833, 1.46111, 1.46389, 1.46667, 1.46944, 1.47222, 1.475, 1.47778, 1.48056, 1.48333, 1.48611, 1.48889, 1.49167, 1.49444, 1.49722, 1.5, 1.50278, 1.50556, 1.50833, 1.51111, 1.51389, 1.51667, 1.51944, 1.52222, 1.525, 1.52778, 1.53056, 1.53333, 1.53611, 1.53889, 1.54167, 1.54444, 1.54722, 1.55, 1.55278, 1.55556, 1.55833, 1.56111, 1.56389, 1.56667, 1.56944, 1.57222, 1.575, 1.57778, 1.58056, 1.58333, 1.58611, 1.58889, 1.59167, 1.59444, 1.59722, 1.6, 1.60278, 1.60556, 1.60833, 1.61111, 1.61389, 1.61667, 1.61944, 1.62222, 1.625, 1.62778, 1.63056, 1.63333, 1.63611, 1.63889, 1.64167, 1.64444, 1.64722, 1.65, 1.65278, 1.65556, 1.65833, 1.66111, 1.66389, 1.66667, 1.66944, 1.67222, 1.675, 1.67778, 1.68056, 1.68333, 1.68611, 1.68889, 1.69167, 1.69444, 1.69722, 1.7, 1.70278, 1.70556, 1.70833, 1.71111, 1.71389, 1.71667, 1.71944, 1.72222, 1.725, 1.72778, 1.73056, 1.73333, 1.73611, 1.73889, 1.74167, 1.74444, 1.74722, 1.75, 1.75278, 1.75556, 1.75833, 1.76111, 1.76389, 1.76667, 1.76944, 1.77222, 1.775, 1.77778, 1.78056, 1.78333, 1.78611, 1.78889, 1.79167, 1.79444, 1.79722, 1.8, 1.80278, 1.80556, 1.80833, 1.81111, 1.81389, 1.81667, 1.81944, 1.82222, 1.825, 1.82778, 1.83056, 1.83333, 1.83611, 1.83889, 1.84167, 1.84444, 1.84722, 1.85, 1.85278, 1.85556, 1.85833, 1.86111, 1.86389, 1.86667, 1.86944, 1.87222, 1.875, 1.87778, 1.88056, 1.88333, 1.88611, 1.88889, 1.89167, 1.89444, 1.89722, 1.9, 1.90278, 1.90556, 1.90833, 1.91111, 1.91389, 1.91667, 1.91944, 1.92222, 1.925, 1.92778, 1.93056, 1.93333, 1.93611, 1.93889, 1.94167, 1.94444, 1.94722, 1.95, 1.95278, 1.95556, 1.95833, 1.96111, 1.96389, 1.96667, 1.96944, 1.97222, 1.975, 1.97778, 1.98056, 1.98333, 1.98611, 1.98889, 1.99167, 1.99444, 1.99722, 2.0, 2.00278, 2.00556, 2.00833, 2.01111, 2.01389, 2.01667, 2.01944, 2.02222, 2.025, 2.02778, 2.03056]}",R,0,0,0,1,0,2024-02-20 15:06:33,2024-05-10 10:31:51,20230131_095714_yudarvish_77_218_005_FF_89.json,,,1,1,1,2023-01-31,mlb,DL - Kent,,1.96,98.88,6,"['1_1', '1_2', '1_4', '1_5', '1_6']",[],,yabin marshed,2024-02-20 15:06:31,2024-05-10 10:31:51,,1.0,1,1
6,1,6,1_6,,,,,,,,,,360,"{""0"": [0.0, 0.00278, 0.00556, 0.00833, 0.01111, 0.01389, 0.01667, 0.01944, 0.02222, 0.025, 0.02778, 0.03056, 0.03333, 0.03611, 0.03889, 0.04167, 0.04444, 0.04722, 0.05, 0.05278, 0.05556, 0.05833, 0.06111, 0.06389, 0.06667, 0.06944, 0.07222, 0.075, 0.07778, 0.08056, 0.08333, 0.08611, 0.08889, 0.09167, 0.09444, 0.09722, 0.1, 0.10278, 0.10556, 0.10833, 0.11111, 0.11389, 0.11667, 0.11944, 0.12222, 0.125, 0.12778, 0.13056, 0.13333, 0.13611, 0.13889, 0.14167, 0.14444, 0.14722, 0.15, 0.15278, 0.15556, 0.15833, 0.16111, 0.16389, 0.16667, 0.16944, 0.17222, 0.175, 0.17778, 0.18056, 0.18333, 0.18611, 0.18889, 0.19167, 0.19444, 0.19722, 0.2, 0.20278, 0.20556, 0.20833, 0.21111, 0.21389, 0.21667, 0.21944, 0.22222, 0.225, 0.22778, 0.23056, 0.23333, 0.23611, 0.23889, 0.24167, 0.24444, 0.24722, 0.25, 0.25278, 0.25556, 0.25833, 0.26111, 0.26389, 0.26667, 0.26944, 0.27222, 0.275, 0.27778, 0.28056, 0.28333, 0.28611, 0.28889, 0.29167, 0.29444, 0.29722, 0.3, 0.30278, 0.30556, 0.30833, 0.31111, 0.31389, 0.31667, 0.31944, 0.32222, 0.325, 0.32778, 0.33056, 0.33333, 0.33611, 0.33889, 0.34167, 0.34444, 0.34722, 0.35, 0.35278, 0.35556, 0.35833, 0.36111, 0.36389, 0.36667, 0.36944, 0.37222, 0.375, 0.37778, 0.38056, 0.38333, 0.38611, 0.38889, 0.39167, 0.39444, 0.39722, 0.4, 0.40278, 0.40556, 0.40833, 0.41111, 0.41389, 0.41667, 0.41944, 0.42222, 0.425, 0.42778, 0.43056, 0.43333, 0.43611, 0.43889, 0.44167, 0.44444, 0.44722, 0.45, 0.45278, 0.45556, 0.45833, 0.46111, 0.46389, 0.46667, 0.46944, 0.47222, 0.475, 0.47778, 0.48056, 0.48333, 0.48611, 0.48889, 0.49167, 0.49444, 0.49722, 0.5, 0.50278, 0.50556, 0.50833, 0.51111, 0.51389, 0.51667, 0.51944, 0.52222, 0.525, 0.52778, 0.53056, 0.53333, 0.53611, 0.53889, 0.54167, 0.54444, 0.54722, 0.55, 0.55278, 0.55556, 0.55833, 0.56111, 0.56389, 0.56667, 0.56944, 0.57222, 0.575, 0.57778, 0.58056, 0.58333, 0.58611, 0.58889, 0.59167, 0.59444, 0.59722, 0.6, 0.60278, 0.60556, 0.60833, 0.61111, 0.61389, 0.61667, 0.61944, 0.62222, 0.625, 0.62778, 0.63056, 0.63333, 0.63611, 0.63889, 0.64167, 0.64444, 0.64722, 0.65, 0.65278, 0.65556, 0.65833, 0.66111, 0.66389, 0.66667, 0.66944, 0.67222, 0.675, 0.67778, 0.68056, 0.68333, 0.68611, 0.68889, 0.69167, 0.69444, 0.69722, 0.7, 0.70278, 0.70556, 0.70833, 0.71111, 0.71389, 0.71667, 0.71944, 0.72222, 0.725, 0.72778, 0.73056, 0.73333, 0.73611, 0.73889, 0.74167, 0.74444, 0.74722, 0.75, 0.75278, 0.75556, 0.75833, 0.76111, 0.76389, 0.76667, 0.76944, 0.77222, 0.775, 0.77778, 0.78056, 0.78333, 0.78611, 0.78889, 0.79167, 0.79444, 0.79722, 0.8, 0.80278, 0.80556, 0.80833, 0.81111, 0.81389, 0.81667, 0.81944, 0.82222, 0.825, 0.82778, 0.83056, 0.83333, 0.83611, 0.83889, 0.84167, 0.84444, 0.84722, 0.85, 0.85278, 0.85556, 0.85833, 0.86111, 0.86389, 0.86667, 0.86944, 0.87222, 0.875, 0.87778, 0.88056, 0.88333, 0.88611, 0.88889, 0.89167, 0.89444, 0.89722, 0.9, 0.90278, 0.90556, 0.90833, 0.91111, 0.91389, 0.91667, 0.91944, 0.92222, 0.925, 0.92778, 0.93056, 0.93333, 0.93611, 0.93889, 0.94167, 0.94444, 0.94722, 0.95, 0.95278, 0.95556, 0.95833, 0.96111, 0.96389, 0.96667, 0.96944, 0.97222, 0.975, 0.97778, 0.98056, 0.98333, 0.98611, 0.98889, 0.99167, 0.99444, 0.99722, 1.0, 1.00278, 1.00556, 1.00833, 1.01111, 1.01389, 1.01667, 1.01944, 1.02222, 1.025, 1.02778, 1.03056, 1.03333, 1.03611, 1.03889, 1.04167, 1.04444, 1.04722, 1.05, 1.05278, 1.05556, 1.05833, 1.06111, 1.06389, 1.06667, 1.06944, 1.07222, 1.075, 1.07778, 1.08056, 1.08333, 1.08611, 1.08889, 1.09167, 1.09444, 1.09722, 1.1, 1.10278, 1.10556, 1.10833, 1.11111, 1.11389, 1.11667, 1.11944, 1.12222, 1.125, 1.12778, 1.13056, 1.13333, 1.13611, 1.13889, 1.14167, 1.14444, 1.14722, 1.15, 1.15278, 1.15556, 1.15833, 1.16111, 1.16389, 1.16667, 1.16944, 1.17222, 1.175, 1.17778, 1.18056, 1.18333, 1.18611, 1.18889, 1.19167, 1.19444, 1.19722, 1.2, 1.20278, 1.20556, 1.20833, 1.21111, 1.21389, 1.21667, 1.21944, 1.22222, 1.225, 1.22778, 1.23056, 1.23333, 1.23611, 1.23889, 1.24167, 1.24444, 1.24722, 1.25, 1.25278, 1.25556, 1.25833, 1.26111, 1.26389, 1.26667, 1.26944, 1.27222, 1.275, 1.27778, 1.28056, 1.28333, 1.28611, 1.28889, 1.29167, 1.29444, 1.29722, 1.3, 1.30278, 1.30556, 1.30833, 1.31111, 1.31389, 1.31667, 1.31944, 1.32222, 1.325, 1.32778, 1.33056, 1.33333, 1.33611, 1.33889, 1.34167, 1.34444, 1.34722, 1.35, 1.35278, 1.35556, 1.35833, 1.36111, 1.36389, 1.36667, 1.36944, 1.37222, 1.375, 1.37778, 1.38056, 1.38333, 1.38611, 1.38889, 1.39167, 1.39444, 1.39722, 1.4, 1.40278, 1.40556, 1.40833, 1.41111, 1.41389, 1.41667, 1.41944, 1.42222, 1.425, 1.42778, 1.43056, 1.43333, 1.43611, 1.43889, 1.44167, 1.44444, 1.44722, 1.45, 1.45278, 1.45556, 1.45833, 1.46111, 1.46389, 1.46667, 1.46944, 1.47222, 1.475, 1.47778, 1.48056, 1.48333, 1.48611, 1.48889, 1.49167, 1.49444, 1.49722, 1.5, 1.50278, 1.50556, 1.50833, 1.51111, 1.51389, 1.51667, 1.51944, 1.52222, 1.525, 1.52778, 1.53056, 1.53333, 1.53611, 1.53889, 1.54167, 1.54444, 1.54722, 1.55, 1.55278, 1.55556, 1.55833, 1.56111, 1.56389, 1.56667, 1.56944, 1.57222, 1.575, 1.57778, 1.58056, 1.58333, 1.58611, 1.58889, 1.59167, 1.59444, 1.59722, 1.6, 1.60278, 1.60556, 1.60833, 1.61111, 1.61389, 1.61667, 1.61944, 1.62222, 1.625, 1.62778, 1.63056, 1.63333, 1.63611, 1.63889, 1.64167, 1.64444, 1.64722, 1.65, 1.65278, 1.65556, 1.65833, 1.66111, 1.66389, 1.66667, 1.66944, 1.67222, 1.675, 1.67778, 1.68056, 1.68333, 1.68611, 1.68889, 1.69167, 1.69444, 1.69722, 1.7, 1.70278, 1.70556, 1.70833, 1.71111, 1.71389, 1.71667, 1.71944, 1.72222, 1.725, 1.72778, 1.73056, 1.73333, 1.73611, 1.73889, 1.74167, 1.74444, 1.74722, 1.75, 1.75278, 1.75556, 1.75833, 1.76111, 1.76389, 1.76667, 1.76944, 1.77222, 1.775, 1.77778, 1.78056, 1.78333, 1.78611, 1.78889, 1.79167, 1.79444, 1.79722, 1.8, 1.80278, 1.80556, 1.80833, 1.81111, 1.81389, 1.81667, 1.81944, 1.82222, 1.825, 1.82778, 1.83056, 1.83333, 1.83611, 1.83889, 1.84167, 1.84444, 1.84722, 1.85, 1.85278, 1.85556, 1.85833, 1.86111, 1.86389, 1.86667, 1.86944, 1.87222, 1.875, 1.87778, 1.88056, 1.88333, 1.88611, 1.88889, 1.89167, 1.89444, 1.89722, 1.9, 1.90278, 1.90556, 1.90833, 1.91111, 1.91389, 1.91667, 1.91944, 1.92222, 1.925, 1.92778, 1.93056, 1.93333, 1.93611, 1.93889, 1.94167, 1.94444, 1.94722, 1.95, 1.95278, 1.95556, 1.95833, 1.96111, 1.96389, 1.96667, 1.96944, 1.97222, 1.975, 1.97778, 1.98056, 1.98333, 1.98611, 1.98889, 1.99167, 1.99444, 1.99722, 2.0, 2.00278]}",R,0,0,0,1,0,2024-02-20 15:06:33,2024-05-10 10:31:51,20230131_095714_yudarvish_77_218_006_FF_90.json,,,1,1,1,2023-01-31,mlb,DL - Kent,,1.96,98.88,6,"['1_1', '1_2', '1_4', '1_5', '1_6']",[],,yabin marshed,2024-02-20 15:06:31,2024-05-10 10:31:51,,1.0,1,1
